113,113
116,116
141,141
354,354
408,408
419,419
545,545
547,547
559,559
626,626
756,756
810,810
917,917
1033,1033
1088,1088
1123,1123
1194,1194
1213,1213
1300,1300
1314,1314
1442,1442
1563,1563
1639,1639
1713,1713
1772,1772
1790,1790
2108,2108
2200,2200
2827,2827
2834,2834
2958,2958
3044,3044
3142,3142
3806,3806
3956,3956
4097,4097
4223,4223
4282,4282
4354,4354
4487,4487
4527,4527
4570,4570
4580,4580
4821,4821
4911,4911
5072,5072
5103,5103
5220,5220
5247,5247
5462,5462
5736,5736
5892,5892
5907,5907
5923,5923
5990,5990
6050,6050
6154,6154
6181,6181
6378,6378
6529,6529
6538,6538
6544,6544
6558,6558
6699,6699
7084,7084
7336,7336
7374,7374
7582,7582
7770,7770
7938,7938
8031,8031
8365,8365
8376,8376
8470,8470
8487,8487
8503,8503
8648,8648
8674,8674
8829,8829
8934,8934
9004,9004
9123,9123
9172,9172
9263,9263
9283,9283
9437,9437
10065,10065
10071,10071
10101,10101
10163,10163
10373,10373
10492,10492
10508,10508
10615,10615
10889,10889
11107,11107
11111,11111
11167,11167
11196,11196
11619,11619
11692,11692
11751,11751
11869,11869
11932,11932
11946,11946
12147,12147
12326,12326
12409,12409
12426,12426
12521,12521
12634,12634
12775,12775
12899,12899
12985,12985
13028,13028
13030,13030
13121,13121
13147,13147
13182,13182
13197,13197
13377,13377
13516,13516
13578,13578
13612,13612
13678,13678
13945,13945
13960,13960
13996,13996
14086,14086
14258,14258
14272,14272
14333,14333
14444,14444
14552,14552
14572,14572
14578,14578
14602,14602
14625,14625
14627,14627
14697,14697
14766,14766
14787,14787
14826,14826
14854,14854
14863,14863
15025,15025
15055,15055
15215,15215
15496,15496
15544,15544
15609,15609
15719,15719
15723,15723
15734,15734
15777,15777
15889,15889
15934,15934
15946,15946
15981,15981
16059,16059
16094,16094
16116,16116
16395,16395
16542,16542
16901,16901
17038,17038
17173,17173
17192,17192
17196,17196
17280,17280
17716,17716
17721,17721
17814,17814
17956,17956
18148,18148
18163,18163
18187,18187
18196,18196
18245,18245
18391,18391
18424,18424
18557,18557
18560,18560
18593,18593
18687,18687
18702,18702
18741,18741
18816,18816
18915,18915
19056,19056
19182,19182
19321,19321
19332,19332
19423,19423
19605,19605
19924,19924
19931,19931
19956,19956
20005,20005
20053,20053
20252,20252
20286,20286
20409,20409
20412,20412
20604,20604
20627,20627
20868,20868
20891,20891
20933,20933
21097,21097
21101,21101
21108,21108
21177,21177
21186,21186
21252,21252
21754,21754
21821,21821
21911,21911
22226,22226
22274,22274
22393,22393
22510,22510
22670,22670
22685,22685
22837,22837
22875,22875
22992,22992
23311,23311
23393,23393
23505,23505
23662,23662
23814,23814
23989,23989
24041,24041
24067,24067
24078,24078
24171,24171
24258,24258
24273,24273
24490,24490
24518,24518
24556,24556
24818,24818
24905,24905
24986,24986
25138,25138
25154,25154
25294,25294
25387,25387
25549,25549
25551,25551
25779,25779
26024,26024
26068,26068
26166,26166
26569,26569
26673,26673
26691,26691
26888,26888
26960,26960
27027,27027
27188,27188
27399,27399
27419,27419
27492,27492
27568,27568
27644,27644
27752,27752
27782,27782
27790,27790
28016,28016
28034,28034
28109,28109
28392,28392
28560,28560
28743,28743
28753,28753
28761,28761
28816,28816
28843,28843
29047,29047
29101,29101
29153,29153
29553,29553
29576,29576
29690,29690
29778,29778
29861,29861
29909,29909
30002,30002
30267,30267
30282,30282
30489,30489
30518,30518
30655,30655
30706,30706
30719,30719
30793,30793
30824,30824
30921,30921
30989,30989
30990,30990
31038,31038
31081,31081
31099,31099
31109,31109
31145,31145
31352,31352
31424,31424
31907,31907
32112,32112
32161,32161
32176,32176
32258,32258
32275,32275
32306,32306
32548,32548
32623,32623
32668,32668
32732,32732
32788,32788
32807,32807
32837,32837
33099,33099
33285,33285
33306,33306
33310,33310
33338,33338
33595,33595
33605,33605
33850,33850
34032,34032
34201,34201
34209,34209
34218,34218
34299,34299
34338,34338
34366,34366
34405,34405
34543,34543
34599,34599
34644,34644
34756,34756
34883,34883
35050,35050
35146,35146
35150,35150
35278,35278
35283,35283
35349,35349
35435,35435
35595,35595
35619,35619
35642,35642
35687,35687
35713,35713
35783,35783
36161,36161
36332,36332
36358,36358
36452,36452
36545,36545
36578,36578
36597,36597
36717,36717
36893,36893
36934,36934
37173,37173
37345,37345
37538,37538
37704,37704
37987,37987
38286,38286
38383,38383
38509,38509
38529,38529
38602,38602
38884,38884
38905,38905
39208,39208
39373,39373
39563,39563
39884,39884
39954,39954
39984,39984
40169,40169
40265,40265
40684,40684
41150,41150
41401,41401
41629,41629
41714,41714
41739,41739
41782,41782
41816,41816
41886,41886
42130,42130
42143,42143
42268,42268
42277,42277
42299,42299
42342,42342
42446,42446
42474,42474
42480,42480
42504,42504
42519,42519
42694,42694
42777,42777
42786,42786
42796,42796
42957,42957
43059,43059
43070,43070
43149,43149
43176,43176
43182,43182
43343,43343
43345,43345
43478,43478
43674,43674
43695,43695
43721,43721
43842,43842
43864,43864
43909,43909
43982,43982
44015,44015
44049,44049
44211,44211
44569,44569
44604,44604
44606,44606
44702,44702
44824,44824
44965,44965
44984,44984
45187,45187
45338,45338
45339,45339
45793,45793
45879,45879
45958,45958
46146,46146
46520,46520
46611,46611
46612,46612
46616,46616
46679,46679
46682,46682
46819,46819
46866,46866
47033,47033
47089,47089
47226,47226
47314,47314
47640,47640
47915,47915
48427,48427
48497,48497
48581,48581
48610,48610
48655,48655
48680,48680
48735,48735
48781,48781
48839,48839
48957,48957
48959,48959
49053,49053
49172,49172
49275,49275
49366,49366
49451,49451
49570,49570
49712,49712
49880,49880
49890,49890
50142,50142
50175,50175
50272,50272
50431,50431
50550,50550
50664,50664
50963,50963
51017,51017
51080,51080
51174,51174
51183,51183
51253,51253
51281,51281
51412,51412
51450,51450
51486,51486
51515,51515
51611,51611
51654,51654
51732,51732
51871,51871
52117,52117
52308,52308
52355,52355
52600,52600
52690,52690
53050,53050
53188,53188
53197,53197
53279,53279
53306,53306
53784,53784
53862,53862
53930,53930
54100,54100
54199,54199
54401,54401
54451,54451
54474,54474
54508,54508
54550,54550
54615,54615
54792,54792
54860,54860
54940,54940
55018,55018
55023,55023
55121,55121
55133,55133
55142,55142
55162,55162
55182,55182
55218,55218
55340,55340
55373,55373
55438,55438
55702,55702
55721,55721
55753,55753
55828,55828
55914,55914
56085,56085
56132,56132
56167,56167
56251,56251
56304,56304
56447,56447
56463,56463
56694,56694
56698,56698
56704,56704
56716,56716
56731,56731
56950,56950
56978,56978
57132,57132
57229,57229
57321,57321
57439,57439
57498,57498
57545,57545
57630,57630
57746,57746
57782,57782
57797,57797
57868,57868
58081,58081
58130,58130
58337,58337
58374,58374
58397,58397
58452,58452
58654,58654
58710,58710
58729,58729
58793,58793
59342,59342
59449,59449
59467,59467
59486,59486
59613,59613
59775,59775
59778,59778
59972,59972
60001,60001
60293,60293
60425,60425
60462,60462
60492,60492
60533,60533
60597,60597
60773,60773
61024,61024
61066,61066
61079,61079
61082,61082
61084,61084
61234,61234
61432,61432
61655,61655
61670,61670
61720,61720
61722,61722
61734,61734
61764,61764
61770,61770
61779,61779
61783,61783
61927,61927
61948,61948
62144,62144
62233,62233
62447,62447
62595,62595
62621,62621
62627,62627
62721,62721
62960,62960
63060,63060
63491,63491
63612,63612
63668,63668
63854,63854
63956,63956
63989,63989
64141,64141
64142,64142
64427,64427
64470,64470
64568,64568
64612,64612
64633,64633
64761,64761
64956,64956
65032,65032
65404,65404
65592,65592
65604,65604
65617,65617
65678,65678
65687,65687
65713,65713
65849,65849
65996,65996
66068,66068
66150,66150
66193,66193
66215,66215
66353,66353
66632,66632
66674,66674
66720,66720
66753,66753
66813,66813
66893,66893
66898,66898
66969,66969
67050,67050
67116,67116
67336,67336
67342,67342
67527,67527
67541,67541
67697,67697
67713,67713
67756,67756
68327,68327
68360,68360
68602,68602
68665,68665
68682,68682
68752,68752
68881,68881
68977,68977
69133,69133
69194,69194
69288,69288
69445,69445
69462,69462
69463,69463
69600,69600
69745,69745
70026,70026
70073,70073
70182,70182
70325,70325
70510,70510
70616,70616
70776,70776
70786,70786
70906,70906
71027,71027
71042,71042
71176,71176
71212,71212
71308,71308
71337,71337
71474,71474
71496,71496
71662,71662
71740,71740
72018,72018
72038,72038
72167,72167
72280,72280
72497,72497
72587,72587
72707,72707
73115,73115
73235,73235
73339,73339
73350,73350
73670,73670
73686,73686
73751,73751
73978,73978
74078,74078
74265,74265
74427,74427
74479,74479
74830,74830
74868,74868
75005,75005
75073,75073
75207,75207
75248,75248
75276,75276
75386,75386
75402,75402
75412,75412
75441,75441
75538,75538
75702,75702
76034,76034
76073,76073
76118,76118
76273,76273
76373,76373
76429,76429
76562,76562
76580,76580
76799,76799
76809,76809
77205,77205
77459,77459
77769,77769
77862,77862
77879,77879
77882,77882
77958,77958
77981,77981
78014,78014
78030,78030
78092,78092
78297,78297
78299,78299
78308,78308
78598,78598
78768,78768
78880,78880
78947,78947
79152,79152
79186,79186
79264,79264
79324,79324
79571,79571
79877,79877
79995,79995
80326,80326
80662,80662
80671,80671
80711,80711
80760,80760
80819,80819
80966,80966
81026,81026
81065,81065
81071,81071
81091,81091
81326,81326
81390,81390
81541,81541
81569,81569
81767,81767
81779,81779
81820,81820
82235,82235
82326,82326
82483,82483
82576,82576
82753,82753
82839,82839
82859,82859
82943,82943
82988,82988
83123,83123
83237,83237
83300,83300
83310,83310
83466,83466
83805,83805
83815,83815
83860,83860
84108,84108
84261,84261
84328,84328
84347,84347
84414,84414
84464,84464
84502,84502
84639,84639
85170,85170
85183,85183
85281,85281
85360,85360
85479,85479
85638,85638
85726,85726
85891,85891
85904,85904
85913,85913
85995,85995
86023,86023
86053,86053
86114,86114
86432,86432
86448,86448
86469,86469
86473,86473
86599,86599
86658,86658
86669,86669
86840,86840
86850,86850
86947,86947
86974,86974
86988,86988
86997,86997
87049,87049
87618,87618
87624,87624
87712,87712
87774,87774
87964,87964
88058,88058
88063,88063
88064,88064
88422,88422
88451,88451
88512,88512
88646,88646
88655,88655
88845,88845
89013,89013
89160,89160
89204,89204
89307,89307
89311,89311
89365,89365
89663,89663
89681,89681
89768,89768
89968,89968
90185,90185
90217,90217
90507,90507
90545,90545
90808,90808
91008,91008
91039,91039
91126,91126
91266,91266
91288,91288
91366,91366
91502,91502
91548,91548
91696,91696
92095,92095
92221,92221
92365,92365
92433,92433
92561,92561
92619,92619
92674,92674
92706,92706
92781,92781
92857,92857
92971,92971
93031,93031
93149,93149
93333,93333
93351,93351
93462,93462
93555,93555
93666,93666
93753,93753
93915,93915
94078,94078
94125,94125
94230,94230
94232,94232
94337,94337
94366,94366
94598,94598
94724,94724
94737,94737
94963,94963
95058,95058
95193,95193
95250,95250
95396,95396
95436,95436
95449,95449
95639,95639
95654,95654
95682,95682
95894,95894
95919,95919
95924,95924
96221,96221
96291,96291
96309,96309
96419,96419
96510,96510
96516,96516
96518,96518
96747,96747
96801,96801
97154,97154
97173,97173
97615,97615
97683,97683
97728,97728
97848,97848
98447,98447
98551,98551
98687,98687
98757,98757
98876,98876
98920,98920
99029,99029
99068,99068
99077,99077
99104,99104
99136,99136
99295,99295
99555,99555
99907,99907
100050,100050
100154,100154
100174,100174
100362,100362
100373,100373
100475,100475
100530,100530
100631,100631
100741,100741
100832,100832
101110,101110
101111,101111
101128,101128
101434,101434
101496,101496
101681,101681
101748,101748
101796,101796
101877,101877
101950,101950
101970,101970
102085,102085
102139,102139
102180,102180
102188,102188
102218,102218
102226,102226
102263,102263
102406,102406
102621,102621
102663,102663
102877,102877
102927,102927
102983,102983
103082,103082
103596,103596
103783,103783
103956,103956
104057,104057
104153,104153
104267,104267
104302,104302
104379,104379
104397,104397
104524,104524
104620,104620
104648,104648
104666,104666
104745,104745
104832,104832
104949,104949
105100,105100
105329,105329
105520,105520
105631,105631
105737,105737
105741,105741
106074,106074
106181,106181
106305,106305
106546,106546
106572,106572
106602,106602
106615,106615
106697,106697
106742,106742
106811,106811
106842,106842
106992,106992
107018,107018
107056,107056
107284,107284
107315,107315
107481,107481
107692,107692
107770,107770
107876,107876
107919,107919
108129,108129
108169,108169
108203,108203
108205,108205
108264,108264
108466,108466
108534,108534
108665,108665
108839,108839
109239,109239
109572,109572
109701,109701
109893,109893
110056,110056
110241,110241
110475,110475
111238,111238
111384,111384
111465,111465
111513,111513
111555,111555
111575,111575
111920,111920
111953,111953
112101,112101
112196,112196
112307,112307
112621,112621
112668,112668
112745,112745
112758,112758
112860,112860
113049,113049
113207,113207
113212,113212
113298,113298
113401,113401
113474,113474
113516,113516
113555,113555
113759,113759
114085,114085
114127,114127
114162,114162
114165,114165
114173,114173
114222,114222
114496,114496
114623,114623
114760,114760
115063,115063
115178,115178
115282,115282
115342,115342
115662,115662
115721,115721
116100,116100
116104,116104
116217,116217
116339,116339
116344,116344
116408,116408
116479,116479
116838,116838
116871,116871
116899,116899
117064,117064
117143,117143
117292,117292
117330,117330
117476,117476
117532,117532
117603,117603
117832,117832
117841,117841
117871,117871
117915,117915
117978,117978
118015,118015
118172,118172
118397,118397
118437,118437
118594,118594
118712,118712
118794,118794
119151,119151
119314,119314
119371,119371
119443,119443
119528,119528
119540,119540
119612,119612
119750,119750
120030,120030
120033,120033
120201,120201
120394,120394
120444,120444
120673,120673
120811,120811
120980,120980
121100,121100
121107,121107
121386,121386
121396,121396
121397,121397
121406,121406
121683,121683
121730,121730
121795,121795
121868,121868
121895,121895
122014,122014
122073,122073
122113,122113
122149,122149
122541,122541
122549,122549
122877,122877
123060,123060
123073,123073
123363,123363
123388,123388
123409,123409
123495,123495
123561,123561
123703,123703
123709,123709
124093,124093
124099,124099
124292,124292
124450,124450
124586,124586
124724,124724
125075,125075
125081,125081
125243,125243
125274,125274
125782,125782
126062,126062
126130,126130
126184,126184
126214,126214
126259,126259
126337,126337
126444,126444
126565,126565
126665,126665
126687,126687
126947,126947
127367,127367
127410,127410
127453,127453
127457,127457
127682,127682
127763,127763
127818,127818
127889,127889
128398,128398
128408,128408
128605,128605
128665,128665
128959,128959
128970,128970
129070,129070
129111,129111
129144,129144
129618,129618
129732,129732
129889,129889
130250,130250
130313,130313
130315,130315
130320,130320
130388,130388
130647,130647
130736,130736
130951,130951
131067,131067
131125,131125
131227,131227
131650,131650
131822,131822
131860,131860
131883,131883
132178,132178
132283,132283
132297,132297
132322,132322
132578,132578
132593,132593
133247,133247
133254,133254
133301,133301
133422,133422
133500,133500
133609,133609
133620,133620
133624,133624
133675,133675
134027,134027
134180,134180
134548,134548
134662,134662
134670,134670
134743,134743
134854,134854
134874,134874
134882,134882
135084,135084
135150,135150
135396,135396
135514,135514
135742,135742
135753,135753
136341,136341
136370,136370
136451,136451
136505,136505
136553,136553
136955,136955
136997,136997
137035,137035
137362,137362
137617,137617
137793,137793
137957,137957
137966,137966
137977,137977
137999,137999
138108,138108
138175,138175
138237,138237
138292,138292
138390,138390
138550,138550
138932,138932
139160,139160
139168,139168
139195,139195
139411,139411
139658,139658
139904,139904
139970,139970
140060,140060
140172,140172
140403,140403
140652,140652
140836,140836
140907,140907
141214,141214
141409,141409
141640,141640
141652,141652
141868,141868
141949,141949
142108,142108
142146,142146
142233,142233
142864,142864
143051,143051
143093,143093
143104,143104
143146,143146
143351,143351
143378,143378
143523,143523
143657,143657
143968,143968
144055,144055
144090,144090
144142,144142
144190,144190
144239,144239
144530,144530
144547,144547
144573,144573
144616,144616
144749,144749
144917,144917
145000,145000
145307,145307
145576,145576
145705,145705
146104,146104
146139,146139
146213,146213
146328,146328
146630,146630
146678,146678
147092,147092
147125,147125
147133,147133
147158,147158
147242,147242
147675,147675
147883,147883
147996,147996
148100,148100
148137,148137
148334,148334
148443,148443
148556,148556
148637,148637
148638,148638
148760,148760
148796,148796
149087,149087
149265,149265
149365,149365
149545,149545
149552,149552
150018,150018
150087,150087
150215,150215
150322,150322
150551,150551
150601,150601
150766,150766
150864,150864
150865,150865
150894,150894
151011,151011
151554,151554
151571,151571
151586,151586
151800,151800
151986,151986
152005,152005
152055,152055
152078,152078
152212,152212
152272,152272
152524,152524
152595,152595
152908,152908
152943,152943
153049,153049
153128,153128
153170,153170
153242,153242
153595,153595
153627,153627
153671,153671
153934,153934
154125,154125
154128,154128
154202,154202
154275,154275
154353,154353
154374,154374
154673,154673
154780,154780
154801,154801
154965,154965
155001,155001
155618,155618
155631,155631
155736,155736
155741,155741
155898,155898
156028,156028
156085,156085
156097,156097
156126,156126
156217,156217
156266,156266
156310,156310
156586,156586
156658,156658
156934,156934
156950,156950
156972,156972
157145,157145
157549,157549
157554,157554
157603,157603
157620,157620
157936,157936
158087,158087
158241,158241
158265,158265
158307,158307
158534,158534
158751,158751
158907,158907
158912,158912
158954,158954
159057,159057
159359,159359
159708,159708
159825,159825
159982,159982
160022,160022
160066,160066
160068,160068
160240,160240
160528,160528
160598,160598
160654,160654
160779,160779
161051,161051
161241,161241
161336,161336
161354,161354
161428,161428
161467,161467
161674,161674
161821,161821
161897,161897
161958,161958
162088,162088
162458,162458
162470,162470
162647,162647
162653,162653
162755,162755
162849,162849
162951,162951
163025,163025
163064,163064
163147,163147
163245,163245
163324,163324
163328,163328
163444,163444
163596,163596
163598,163598
163801,163801
163999,163999
164185,164185
164280,164280
164437,164437
164667,164667
165011,165011
165073,165073
165230,165230
165410,165410
165581,165581
165591,165591
165705,165705
165726,165726
165779,165779
166046,166046
166054,166054
166585,166585
166998,166998
167581,167581
167595,167595
167679,167679
167687,167687
168058,168058
168066,168066
168329,168329
168401,168401
168459,168459
168742,168742
168891,168891
168964,168964
168971,168971
168980,168980
168999,168999
169254,169254
169258,169258
169663,169663
169734,169734
169779,169779
169946,169946
169989,169989
170383,170383
170452,170452
170595,170595
170600,170600
170705,170705
170781,170781
171297,171297
171348,171348
171449,171449
171574,171574
171622,171622
171725,171725
171772,171772
171852,171852
172007,172007
172328,172328
172398,172398
172679,172679
172687,172687
172695,172695
172740,172740
172769,172769
172832,172832
172935,172935
173124,173124
173278,173278
173494,173494
173593,173593
173698,173698
173914,173914
173920,173920
173949,173949
173955,173955
174108,174108
174689,174689
174831,174831
175000,175000
175091,175091
175100,175100
175416,175416
175442,175442
175671,175671
175839,175839
175863,175863
175934,175934
176172,176172
176251,176251
176266,176266
176476,176476
176548,176548
176657,176657
176808,176808
176921,176921
177056,177056
177086,177086
177170,177170
177179,177179
177207,177207
177217,177217
177378,177378
177419,177419
177484,177484
177501,177501
177570,177570
177796,177796
177829,177829
177982,177982
178194,178194
178261,178261
178269,178269
178355,178355
178679,178679
178718,178718
178734,178734
178835,178835
178870,178870
178906,178906
179020,179020
179051,179051
179118,179118
179183,179183
179184,179184
179258,179258
179448,179448
179470,179470
179591,179591
179730,179730
179825,179825
180078,180078
180325,180325
180686,180686
180953,180953
181045,181045
181137,181137
181342,181342
181355,181355
182017,182017
182168,182168
182228,182228
182290,182290
182401,182401
182419,182419
182559,182559
182567,182567
182601,182601
182666,182666
182961,182961
183021,183021
183045,183045
183073,183073
183100,183100
183161,183161
183228,183228
183279,183279
183344,183344
183509,183509
183548,183548
183710,183710
183738,183738
183819,183819
183860,183860
184012,184012
184091,184091
184166,184166
184342,184342
184546,184546
184683,184683
185136,185136
185213,185213
185733,185733
185845,185845
185919,185919
186032,186032
186067,186067
186162,186162
186247,186247
186304,186304
186674,186674
186723,186723
186832,186832
186906,186906
186919,186919
187012,187012
187204,187204
187222,187222
187293,187293
187680,187680
187973,187973
188012,188012
188075,188075
188175,188175
188258,188258
188316,188316
188608,188608
188682,188682
188991,188991
189338,189338
189552,189552
189555,189555
189620,189620
189810,189810
189862,189862
189893,189893
190316,190316
190572,190572
190610,190610
190735,190735
191376,191376
191380,191380
191390,191390
191604,191604
191666,191666
192027,192027
192072,192072
192079,192079
192188,192188
192238,192238
192350,192350
192636,192636
192772,192772
192884,192884
192898,192898
193267,193267
193354,193354
193409,193409
193433,193433
193537,193537
193643,193643
193734,193734
193738,193738
193854,193854
194027,194027
194177,194177
194247,194247
194351,194351
194409,194409
194498,194498
194577,194577
194591,194591
194731,194731
194798,194798
194824,194824
195381,195381
195538,195538
195648,195648
195777,195777
195871,195871
196037,196037
196046,196046
196212,196212
196275,196275
196276,196276
196487,196487
196534,196534
196635,196635
196803,196803
196871,196871
196884,196884
197143,197143
197269,197269
197370,197370
197426,197426
197449,197449
197463,197463
197775,197775
197848,197848
197950,197950
198009,198009
198064,198064
198103,198103
198108,198108
198142,198142
198451,198451
198480,198480
198704,198704
198764,198764
199154,199154
199316,199316
199588,199588
199593,199593
199722,199722
199772,199772
199869,199869
199887,199887
199901,199901
200074,200074
200109,200109
200279,200279
200448,200448
200461,200461
200762,200762
200787,200787
200854,200854
200875,200875
200926,200926
200961,200961
201215,201215
201272,201272
201489,201489
201603,201603
201678,201678
201764,201764
201787,201787
201978,201978
202095,202095
202425,202425
202535,202535
202571,202571
202577,202577
202599,202599
202764,202764
202918,202918
203176,203176
203215,203215
203338,203338
203476,203476
203482,203482
203520,203520
203570,203570
203645,203645
203673,203673
203908,203908
203951,203951
204015,204015
204063,204063
204075,204075
204134,204134
204245,204245
204386,204386
204829,204829
204852,204852
205060,205060
205159,205159
205361,205361
205413,205413
205524,205524
205722,205722
205753,205753
205788,205788
205799,205799
205832,205832
205859,205859
206090,206090
206136,206136
206148,206148
206309,206309
206356,206356
206400,206400
206404,206404
206973,206973
207154,207154
207211,207211
207227,207227
207375,207375
207572,207572
207622,207622
208194,208194
208209,208209
208217,208217
208228,208228
208339,208339
208349,208349
208449,208449
208595,208595
208950,208950
209145,209145
209483,209483
209562,209562
209588,209588
209731,209731
209860,209860
209986,209986
210295,210295
210300,210300
210466,210466
210484,210484
210865,210865
210893,210893
210901,210901
211011,211011
211109,211109
211240,211240
211314,211314
211449,211449
211464,211464
211587,211587
211749,211749
212100,212100
212214,212214
212273,212273
212399,212399
212500,212500
212760,212760
213078,213078
213195,213195
213249,213249
213272,213272
213304,213304
213331,213331
213445,213445
213586,213586
213615,213615
213700,213700
213869,213869
213955,213955
214017,214017
214133,214133
214136,214136
214146,214146
214152,214152
214263,214263
214283,214283
214325,214325
214337,214337
214509,214509
214626,214626
214778,214778
214782,214782
214812,214812
215206,215206
215284,215284
215395,215395
215792,215792
216159,216159
216400,216400
216563,216563
216606,216606
216634,216634
216911,216911
216964,216964
216998,216998
217029,217029
217064,217064
217087,217087
217096,217096
217136,217136
217181,217181
217257,217257
217469,217469
217568,217568
217689,217689
217740,217740
217784,217784
217893,217893
217943,217943
218009,218009
218040,218040
218153,218153
218196,218196
218224,218224
218228,218228
218273,218273
218333,218333
218546,218546
218620,218620
218680,218680
218722,218722
218876,218876
219007,219007
219203,219203
219233,219233
219605,219605
219699,219699
219811,219811
220101,220101
220271,220271
220324,220324
220519,220519
220558,220558
220605,220605
220923,220923
221137,221137
221308,221308
221383,221383
221519,221519
221637,221637
221691,221691
221705,221705
221745,221745
221870,221870
222222,222222
222745,222745
223229,223229
223303,223303
223317,223317
223540,223540
223661,223661
223687,223687
223839,223839
223844,223844
223937,223937
223966,223966
223973,223973
224030,224030
224435,224435
224796,224796
224856,224856
224859,224859
224876,224876
224995,224995
225188,225188
225262,225262
225557,225557
225586,225586
225791,225791
225905,225905
226089,226089
226091,226091
226210,226210
226461,226461
226799,226799
226837,226837
227091,227091
227141,227141
227188,227188
227218,227218
227261,227261
227408,227408
227676,227676
227680,227680
227747,227747
227913,227913
227927,227927
227940,227940
227948,227948
228037,228037
228050,228050
228201,228201
228318,228318
228492,228492
228538,228538
228558,228558
228583,228583
228698,228698
228839,228839
228942,228942
229051,229051
229141,229141
229222,229222
229245,229245
229251,229251
229318,229318
229369,229369
229395,229395
229507,229507
229618,229618
229756,229756
229764,229764
229776,229776
230024,230024
230312,230312
230317,230317
230381,230381
230565,230565
230685,230685
230732,230732
230817,230817
231034,231034
231037,231037
231374,231374
231849,231849
232180,232180
232187,232187
232227,232227
232435,232435
232441,232441
232484,232484
232975,232975
233458,233458
233462,233462
233531,233531
233688,233688
233692,233692
233897,233897
233898,233898
233932,233932
233956,233956
233972,233972
234141,234141
234204,234204
234224,234224
234269,234269
234315,234315
234330,234330
234427,234427
234435,234435
234505,234505
234560,234560
234583,234583
234653,234653
234670,234670
234733,234733
234869,234869
235000,235000
235009,235009
235159,235159
235416,235416
235431,235431
235512,235512
235514,235514
235556,235556
235679,235679
236339,236339
236346,236346
236934,236934
237103,237103
237247,237247
237350,237350
237499,237499
237537,237537
237962,237962
238071,238071
238109,238109
238169,238169
238200,238200
238457,238457
238688,238688
238729,238729
238942,238942
239118,239118
239267,239267
239577,239577
239763,239763
239779,239779
239887,239887
240312,240312
240540,240540
240574,240574
240704,240704
240805,240805
240841,240841
241291,241291
241543,241543
241687,241687
241806,241806
241972,241972
242289,242289
242336,242336
242380,242380
242390,242390
242404,242404
242843,242843
242920,242920
242964,242964
243103,243103
243327,243327
243352,243352
243388,243388
243558,243558
243600,243600
243775,243775
243909,243909
244092,244092
244388,244388
244416,244416
244500,244500
244564,244564
244590,244590
244610,244610
244654,244654
244677,244677
244683,244683
244755,244755
244924,244924
245078,245078
245283,245283
245499,245499
245626,245626
245813,245813
246044,246044
246085,246085
246254,246254
246300,246300
246310,246310
246329,246329
246458,246458
246490,246490
246835,246835
247085,247085
247147,247147
247179,247179
247288,247288
247472,247472
247511,247511
247556,247556
247645,247645
248017,248017
248137,248137
248173,248173
248244,248244
248357,248357
248740,248740
248807,248807
248875,248875
249074,249074
249249,249249
249349,249349
249370,249370
249447,249447
249810,249810
249877,249877
250046,250046
250074,250074
250329,250329
250449,250449
250546,250546
250605,250605
250684,250684
250833,250833
251020,251020
251099,251099
251111,251111
251160,251160
251250,251250
251583,251583
251641,251641
251663,251663
251760,251760
251911,251911
252006,252006
252021,252021
252051,252051
252053,252053
252058,252058
252091,252091
252178,252178
252367,252367
252385,252385
252406,252406
252542,252542
252683,252683
252714,252714
252875,252875
253112,253112
253127,253127
253218,253218
253221,253221
253342,253342
253580,253580
253780,253780
253931,253931
254129,254129
254256,254256
254307,254307
254309,254309
254349,254349
254463,254463
254518,254518
254551,254551
254583,254583
254925,254925
254941,254941
254975,254975
255098,255098
255229,255229
255239,255239
255282,255282
255309,255309
255314,255314
255342,255342
255429,255429
255447,255447
255526,255526
255531,255531
255701,255701
255832,255832
255849,255849
255901,255901
256023,256023
256099,256099
256166,256166
256186,256186
256405,256405
256492,256492
256593,256593
256715,256715
256721,256721
256747,256747
256804,256804
256811,256811
256956,256956
257086,257086
257125,257125
257215,257215
257256,257256
257398,257398
257424,257424
257634,257634
257696,257696
257812,257812
257893,257893
257942,257942
257988,257988
258027,258027
258110,258110
258111,258111
258190,258190
258204,258204
258375,258375
258587,258587
258646,258646
258651,258651
258672,258672
259072,259072
259117,259117
259178,259178
259205,259205
259432,259432
259462,259462
259470,259470
259474,259474
259714,259714
259718,259718
259916,259916
259978,259978
260308,260308
260423,260423
260580,260580
260843,260843
261008,261008
261180,261180
261334,261334
261414,261414
261457,261457
261825,261825
261883,261883
262002,262002
262179,262179
262192,262192
262306,262306
262391,262391
262444,262444
262651,262651
262696,262696
262771,262771
262847,262847
262994,262994
263004,263004
263050,263050
263425,263425
263452,263452
263453,263453
263542,263542
263664,263664
263688,263688
263717,263717
263925,263925
264141,264141
264197,264197
264358,264358
264411,264411
264477,264477
264522,264522
264664,264664
264705,264705
264709,264709
264863,264863
265341,265341
265523,265523
265608,265608
265692,265692
265761,265761
265877,265877
265912,265912
266362,266362
266383,266383
266503,266503
266663,266663
266803,266803
266901,266901
266933,266933
267033,267033
267147,267147
267217,267217
267229,267229
267231,267231
267235,267235
267284,267284
267315,267315
267316,267316
267423,267423
267556,267556
267571,267571
267706,267706
267782,267782
267951,267951
268108,268108
268275,268275
268519,268519
268815,268815
268982,268982
269021,269021
269103,269103
269305,269305
269722,269722
269755,269755
269756,269756
269771,269771
269850,269850
269897,269897
270042,270042
270095,270095
270115,270115
270209,270209
270243,270243
270344,270344
270419,270419
270700,270700
270839,270839
270845,270845
270981,270981
271007,271007
271350,271350
271434,271434
271678,271678
271869,271869
272013,272013
272039,272039
272168,272168
272189,272189
272265,272265
272511,272511
272571,272571
272808,272808
272922,272922
272939,272939
272945,272945
273022,273022
273034,273034
273083,273083
273232,273232
273424,273424
273504,273504
273718,273718
273935,273935
274006,274006
274029,274029
274205,274205
274207,274207
274214,274214
274230,274230
274369,274369
274493,274493
274519,274519
274557,274557
275082,275082
275220,275220
275286,275286
275363,275363
275573,275573
275585,275585
275613,275613
275699,275699
275883,275883
276037,276037
276190,276190
276223,276223
276274,276274
276303,276303
276322,276322
276362,276362
276647,276647
276819,276819
276901,276901
276947,276947
277024,277024
277267,277267
277284,277284
277342,277342
277432,277432
277456,277456
277465,277465
277641,277641
277667,277667
277688,277688
277725,277725
277753,277753
277847,277847
277957,277957
278100,278100
278122,278122
278201,278201
278211,278211
278249,278249
278298,278298
278482,278482
278547,278547
278648,278648
278739,278739
278864,278864
278897,278897
278917,278917
279000,279000
279050,279050
279095,279095
279262,279262
279366,279366
279408,279408
279482,279482
279926,279926
280111,280111
280135,280135
280227,280227
280261,280261
280403,280403
280751,280751
280916,280916
281120,281120
281171,281171
281193,281193
281205,281205
281208,281208
281329,281329
281522,281522
281658,281658
281829,281829
281954,281954
282064,282064
282273,282273
282355,282355
282413,282413
282478,282478
282555,282555
282685,282685
282723,282723
282915,282915
283018,283018
283039,283039
283079,283079
283124,283124
283373,283373
283418,283418
283454,283454
283476,283476
283492,283492
283584,283584
283585,283585
283973,283973
284029,284029
284073,284073
284203,284203
284317,284317
284429,284429
284436,284436
284580,284580
284662,284662
285115,285115
285381,285381
285386,285386
285389,285389
285448,285448
285497,285497
285962,285962
285970,285970
285979,285979
286102,286102
286268,286268
286332,286332
286337,286337
286512,286512
286572,286572
286835,286835
287017,287017
287035,287035
287135,287135
287208,287208
287209,287209
287290,287290
287356,287356
287372,287372
287454,287454
287711,287711
287731,287731
287789,287789
287886,287886
287905,287905
288142,288142
288260,288260
288326,288326
288536,288536
288860,288860
288874,288874
288999,288999
289023,289023
289088,289088
289112,289112
289130,289130
289132,289132
289144,289144
289249,289249
289828,289828
289833,289833
289872,289872
289892,289892
289956,289956
289977,289977
289982,289982
290155,290155
290225,290225
290283,290283
290296,290296
290589,290589
290601,290601
290781,290781
291126,291126
291302,291302
291394,291394
291723,291723
291766,291766
291793,291793
291831,291831
292012,292012
292054,292054
292055,292055
292308,292308
292583,292583
292745,292745
292751,292751
292850,292850
292864,292864
292962,292962
293015,293015
293180,293180
293278,293278
293520,293520
293660,293660
293761,293761
293780,293780
293791,293791
293926,293926
293990,293990
294098,294098
294221,294221
294222,294222
294417,294417
294765,294765
294985,294985
295154,295154
295161,295161
295186,295186
295261,295261
295283,295283
295542,295542
295567,295567
295648,295648
295675,295675
295699,295699
295762,295762
295817,295817
296302,296302
296441,296441
296492,296492
296586,296586
296648,296648
296692,296692
296746,296746
296765,296765
296892,296892
296963,296963
297057,297057
297246,297246
297258,297258
297357,297357
297618,297618
297853,297853
297855,297855
297898,297898
298011,298011
298388,298388
298643,298643
298644,298644
298667,298667
298804,298804
299049,299049
299085,299085
299196,299196
299290,299290
299459,299459
299510,299510
299611,299611
299924,299924
300190,300190
300379,300379
300416,300416
300442,300442
300656,300656
300834,300834
300861,300861
300889,300889
301013,301013
301267,301267
301281,301281
301316,301316
301514,301514
301656,301656
301692,301692
301698,301698
301808,301808
301909,301909
301932,301932
302003,302003
302039,302039
302047,302047
302072,302072
302119,302119
302127,302127
302265,302265
302326,302326
302443,302443
302683,302683
302805,302805
302817,302817
302981,302981
303401,303401
303413,303413
303463,303463
303530,303530
303561,303561
303583,303583
303651,303651
303851,303851
303861,303861
303889,303889
303976,303976
304084,304084
304132,304132
304915,304915
305080,305080
305134,305134
305171,305171
305356,305356
305363,305363
305440,305440
305642,305642
306031,306031
306178,306178
306265,306265
306412,306412
306563,306563
306608,306608
306611,306611
307029,307029
307070,307070
307112,307112
307203,307203
307235,307235
307254,307254
307304,307304
307489,307489
307494,307494
307500,307500
307598,307598
307747,307747
307937,307937
308046,308046
308087,308087
308096,308096
308228,308228
308351,308351
308400,308400
308456,308456
308465,308465
308540,308540
308682,308682
308728,308728
308773,308773
308777,308777
308974,308974
309045,309045
309065,309065
309215,309215
309261,309261
309337,309337
309401,309401
309512,309512
309517,309517
309576,309576
309648,309648
309932,309932
309941,309941
310085,310085
310235,310235
310289,310289
310556,310556
311538,311538
311731,311731
311754,311754
311937,311937
311950,311950
311956,311956
311990,311990
312059,312059
312071,312071
312081,312081
312392,312392
312455,312455
312526,312526
312711,312711
312750,312750
312776,312776
312905,312905
312918,312918
312979,312979
313125,313125
313199,313199
313362,313362
313591,313591
313753,313753
313776,313776
313906,313906
314049,314049
314075,314075
314117,314117
314127,314127
314295,314295
314459,314459
314714,314714
314839,314839
314948,314948
315036,315036
315040,315040
315090,315090
315180,315180
315455,315455
315546,315546
315751,315751
315752,315752
316026,316026
316266,316266
316268,316268
316304,316304
316414,316414
316632,316632
316687,316687
316780,316780
316850,316850
316965,316965
317014,317014
317067,317067
317136,317136
317289,317289
317751,317751
317791,317791
317874,317874
317971,317971
318254,318254
318467,318467
318638,318638
318758,318758
318791,318791
319002,319002
319260,319260
319343,319343
319411,319411
319616,319616
319636,319636
319740,319740
319887,319887
320056,320056
320104,320104
320248,320248
320282,320282
320344,320344
320510,320510
320653,320653
320822,320822
320829,320829
321109,321109
321238,321238
321351,321351
321376,321376
321497,321497
321649,321649
321688,321688
321748,321748
321794,321794
321926,321926
321961,321961
321994,321994
321995,321995
322206,322206
322245,322245
322319,322319
322333,322333
322356,322356
322714,322714
322833,322833
323462,323462
323494,323494
323555,323555
323567,323567
323578,323578
323741,323741
323833,323833
323894,323894
323899,323899
323925,323925
324030,324030
324057,324057
324114,324114
324235,324235
324489,324489
324508,324508
324618,324618
324860,324860
324889,324889
324900,324900
324904,324904
324924,324924
325008,325008
325015,325015
325116,325116
325250,325250
325442,325442
325631,325631
325713,325713
325758,325758
325838,325838
325908,325908
326015,326015
326129,326129
326377,326377
326445,326445
326455,326455
326473,326473
326522,326522
326596,326596
326825,326825
327079,327079
327090,327090
327573,327573
327684,327684
327774,327774
327843,327843
328059,328059
328122,328122
328219,328219
328354,328354
328359,328359
328557,328557
328663,328663
328762,328762
328889,328889
329054,329054
329138,329138
329227,329227
329496,329496
329558,329558
329563,329563
329944,329944
329957,329957
329979,329979
330049,330049
330058,330058
330303,330303
330323,330323
330588,330588
330820,330820
330983,330983
331439,331439
331480,331480
331778,331778
331832,331832
331955,331955
332008,332008
332174,332174
332192,332192
332204,332204
332207,332207
332246,332246
332252,332252
332265,332265
332313,332313
332397,332397
332562,332562
332727,332727
332780,332780
332903,332903
332992,332992
333115,333115
333354,333354
333381,333381
333551,333551
333594,333594
333640,333640
333677,333677
333914,333914
334176,334176
334201,334201
334336,334336
334401,334401
334415,334415
334494,334494
334563,334563
334898,334898
335191,335191
335344,335344
335411,335411
335418,335418
335490,335490
335856,335856
335956,335956
336101,336101
336348,336348
336437,336437
336515,336515
336579,336579
336582,336582
336595,336595
336784,336784
336815,336815
336852,336852
336928,336928
337090,337090
337143,337143
337381,337381
337404,337404
337511,337511
337680,337680
338003,338003
338049,338049
338293,338293
338380,338380
338450,338450
338611,338611
338815,338815
338940,338940
339142,339142
339209,339209
339247,339247
339281,339281
339645,339645
339662,339662
339663,339663
339726,339726
339797,339797
339955,339955
340040,340040
340316,340316
340331,340331
340382,340382
340459,340459
340576,340576
340651,340651
340732,340732
340877,340877
340898,340898
340943,340943
340958,340958
340978,340978
341195,341195
341328,341328
341346,341346
341631,341631
341641,341641
341702,341702
341748,341748
341894,341894
341999,341999
342033,342033
342055,342055
342126,342126
342255,342255
342501,342501
342509,342509
342732,342732
342769,342769
343185,343185
343225,343225
343392,343392
343422,343422
343464,343464
343577,343577
343605,343605
343858,343858
343993,343993
344227,344227
344358,344358
344386,344386
344512,344512
344520,344520
344559,344559
344582,344582
344585,344585
344737,344737
344786,344786
345047,345047
345150,345150
345323,345323
345448,345448
345503,345503
345609,345609
345623,345623
345707,345707
345708,345708
345938,345938
345972,345972
346009,346009
346048,346048
346062,346062
346480,346480
346506,346506
346708,346708
346810,346810
346820,346820
347074,347074
347235,347235
347383,347383
347598,347598
347822,347822
347856,347856
348242,348242
348255,348255
348258,348258
348535,348535
348601,348601
348618,348618
348655,348655
348704,348704
348816,348816
348825,348825
348928,348928
349074,349074
349191,349191
349214,349214
349348,349348
349390,349390
349481,349481
349763,349763
349765,349765
349878,349878
349923,349923
350021,350021
350147,350147
350186,350186
350199,350199
350290,350290
350314,350314
350332,350332
350430,350430
350597,350597
350643,350643
350651,350651
350758,350758
350820,350820
351024,351024
351062,351062
351076,351076
351097,351097
351364,351364
351509,351509
351559,351559
351907,351907
352075,352075
352187,352187
352288,352288
352486,352486
352512,352512
352585,352585
352639,352639
352650,352650
352655,352655
353026,353026
353091,353091
353101,353101
353269,353269
353363,353363
353694,353694
353792,353792
354037,354037
354164,354164
354215,354215
354226,354226
354243,354243
354262,354262
354278,354278
354331,354331
354425,354425
354718,354718
354761,354761
354763,354763
354768,354768
354886,354886
354946,354946
354963,354963
355060,355060
355178,355178
355507,355507
355573,355573
355664,355664
355750,355750
355871,355871
355885,355885
355963,355963
356093,356093
356212,356212
356282,356282
356449,356449
356478,356478
356485,356485
356517,356517
357108,357108
357162,357162
357175,357175
357192,357192
357321,357321
357338,357338
357561,357561
357581,357581
357655,357655
357720,357720
358057,358057
358309,358309
358404,358404
358495,358495
358593,358593
358817,358817
358937,358937
359240,359240
359469,359469
359626,359626
359639,359639
359836,359836
359942,359942
359954,359954
359967,359967
360019,360019
360045,360045
360125,360125
360314,360314
360657,360657
360674,360674
360815,360815
361061,361061
361147,361147
361520,361520
361563,361563
361583,361583
361656,361656
361663,361663
361697,361697
361965,361965
362148,362148
362230,362230
362314,362314
362335,362335
362396,362396
362537,362537
362663,362663
362750,362750
362799,362799
363021,363021
363377,363377
363530,363530
363542,363542
363740,363740
363807,363807
364297,364297
364354,364354
364476,364476
364493,364493
364563,364563
365006,365006
365413,365413
365435,365435
365500,365500
365536,365536
365630,365630
365639,365639
365749,365749
365871,365871
365919,365919
365927,365927
366064,366064
366115,366115
366127,366127
366395,366395
366438,366438
366532,366532
366543,366543
366786,366786
366903,366903
366977,366977
367052,367052
367082,367082
367174,367174
367388,367388
367439,367439
367536,367536
367551,367551
367822,367822
367861,367861
368113,368113
368167,368167
368284,368284
368435,368435
368866,368866
368946,368946
368976,368976
369030,369030
369267,369267
369309,369309
369318,369318
369595,369595
369861,369861
370019,370019
370155,370155
370201,370201
370434,370434
370640,370640
370699,370699
370717,370717
370777,370777
371023,371023
371036,371036
371096,371096
371099,371099
371219,371219
371292,371292
371399,371399
371980,371980
372080,372080
372129,372129
372199,372199
372330,372330
372353,372353
372492,372492
372714,372714
372787,372787
372935,372935
372999,372999
373089,373089
373502,373502
373736,373736
373807,373807
374116,374116
374176,374176
374311,374311
374365,374365
374436,374436
374771,374771
374782,374782
374858,374858
374963,374963
375087,375087
375338,375338
375407,375407
375541,375541
375556,375556
375597,375597
375633,375633
375635,375635
375678,375678
376197,376197
376261,376261
376286,376286
376861,376861
377003,377003
377080,377080
377133,377133
377198,377198
377259,377259
377353,377353
377423,377423
377461,377461
377496,377496
377626,377626
377945,377945
377993,377993
378076,378076
378237,378237
378265,378265
378334,378334
378363,378363
378507,378507
378519,378519
378608,378608
378631,378631
378946,378946
378964,378964
378973,378973
379006,379006
379020,379020
379222,379222
379284,379284
379469,379469
379897,379897
380126,380126
380477,380477
380603,380603
380610,380610
380958,380958
380960,380960
381034,381034
381150,381150
381167,381167
381238,381238
381353,381353
381391,381391
381453,381453
381468,381468
381778,381778
382021,382021
382030,382030
382077,382077
382079,382079
382083,382083
382229,382229
382445,382445
382506,382506
382662,382662
382675,382675
382739,382739
382750,382750
382839,382839
382884,382884
382907,382907
382923,382923
382950,382950
382959,382959
383179,383179
383182,383182
383268,383268
383283,383283
383324,383324
383394,383394
383930,383930
383934,383934
384186,384186
384226,384226
384403,384403
384586,384586
384666,384666
384733,384733
384747,384747
384853,384853
385006,385006
385030,385030
385091,385091
385105,385105
385171,385171
385518,385518
385581,385581
385595,385595
385633,385633
385667,385667
385680,385680
385745,385745
386068,386068
386238,386238
386285,386285
386504,386504
386629,386629
386834,386834
386836,386836
386838,386838
387021,387021
387065,387065
387202,387202
387247,387247
387883,387883
388039,388039
388384,388384
388503,388503
388620,388620
388723,388723
388789,388789
388961,388961
389095,389095
389441,389441
389560,389560
389638,389638
389706,389706
389716,389716
389739,389739
389748,389748
389832,389832
389923,389923
389984,389984
390018,390018
390055,390055
390117,390117
390134,390134
390178,390178
390447,390447
390506,390506
390524,390524
390595,390595
390816,390816
390984,390984
391128,391128
391234,391234
391303,391303
391871,391871
391897,391897
391907,391907
391986,391986
392057,392057
392200,392200
392207,392207
392218,392218
392236,392236
392405,392405
392463,392463
392516,392516
392557,392557
392807,392807
393270,393270
393654,393654
393781,393781
393899,393899
393963,393963
393979,393979
394029,394029
394208,394208
394351,394351
394360,394360
394452,394452
394546,394546
394622,394622
394688,394688
394887,394887
395011,395011
395107,395107
395124,395124
395167,395167
395172,395172
395286,395286
395431,395431
395444,395444
395469,395469
395885,395885
395922,395922
396285,396285
396411,396411
396556,396556
396644,396644
396668,396668
396718,396718
396906,396906
396923,396923
396976,396976
397186,397186
397380,397380
397457,397457
397508,397508
397583,397583
397622,397622
397675,397675
397860,397860
397914,397914
397974,397974
398098,398098
398132,398132
398181,398181
398190,398190
398200,398200
398223,398223
398340,398340
398381,398381
398510,398510
398583,398583
398740,398740
398954,398954
398961,398961
399166,399166
399312,399312
399589,399589
399606,399606
400060,400060
400232,400232
400255,400255
400282,400282
400363,400363
400372,400372
400684,400684
400737,400737
400740,400740
400750,400750
400758,400758
400925,400925
401008,401008
401128,401128
401191,401191
401534,401534
401716,401716
402074,402074
402218,402218
402323,402323
402804,402804
402900,402900
402901,402901
402969,402969
403018,403018
403255,403255
403324,403324
403570,403570
403667,403667
403682,403682
403683,403683
403788,403788
404001,404001
404038,404038
404129,404129
404186,404186
404307,404307
404335,404335
404365,404365
404433,404433
404625,404625
404761,404761
404840,404840
405185,405185
405512,405512
405560,405560
405619,405619
405759,405759
405874,405874
406105,406105
406227,406227
406233,406233
406237,406237
406335,406335
406601,406601
406626,406626
406793,406793
406847,406847
406946,406946
407074,407074
407371,407371
407469,407469
407543,407543
407616,407616
407761,407761
407864,407864
407959,407959
408005,408005
408409,408409
408503,408503
408603,408603
408928,408928
409166,409166
409445,409445
409559,409559
409577,409577
410002,410002
410213,410213
410313,410313
410420,410420
410572,410572
410681,410681
410687,410687
410702,410702
410859,410859
410865,410865
411076,411076
411184,411184
411296,411296
411511,411511
411613,411613
411824,411824
412019,412019
412110,412110
412226,412226
412259,412259
412331,412331
412351,412351
412391,412391
412505,412505
412943,412943
412947,412947
412996,412996
413032,413032
413137,413137
413636,413636
413717,413717
413768,413768
413924,413924
413954,413954
414183,414183
414204,414204
414310,414310
414465,414465
414737,414737
414850,414850
414863,414863
414927,414927
414938,414938
414997,414997
415008,415008
415042,415042
415093,415093
415238,415238
415370,415370
415376,415376
415402,415402
415595,415595
415602,415602
415639,415639
415683,415683
415832,415832
415853,415853
415893,415893
415924,415924
416063,416063
416093,416093
416459,416459
416461,416461
416613,416613
416636,416636
416643,416643
416706,416706
416792,416792
416847,416847
416957,416957
417005,417005
417016,417016
417024,417024
417355,417355
417568,417568
417591,417591
417622,417622
417691,417691
417787,417787
417945,417945
417958,417958
418013,418013
418165,418165
418508,418508
418577,418577
418635,418635
418666,418666
418702,418702
418753,418753
418754,418754
418767,418767
418769,418769
418994,418994
419053,419053
419159,419159
419511,419511
419521,419521
419663,419663
419689,419689
419710,419710
419763,419763
419985,419985
420044,420044
420067,420067
420183,420183
420252,420252
420433,420433
420441,420441
420623,420623
420632,420632
420655,420655
420714,420714
420967,420967
421078,421078
421140,421140
421179,421179
421356,421356
421428,421428
421437,421437
421455,421455
421491,421491
421597,421597
421600,421600
421609,421609
421656,421656
421733,421733
421750,421750
422217,422217
422408,422408
422428,422428
422528,422528
422733,422733
422758,422758
422855,422855
422914,422914
422939,422939
423084,423084
423180,423180
423345,423345
423438,423438
423539,423539
423558,423558
423675,423675
423730,423730
423743,423743
423900,423900
423913,423913
423982,423982
424006,424006
424044,424044
424309,424309
424348,424348
424362,424362
424476,424476
424521,424521
424615,424615
424846,424846
424963,424963
425071,425071
425084,425084
425156,425156
425164,425164
425517,425517
425596,425596
425633,425633
425865,425865
426010,426010
426343,426343
426361,426361
426492,426492
426530,426530
426541,426541
426583,426583
426588,426588
426625,426625
426928,426928
427114,427114
427369,427369
427432,427432
427441,427441
427629,427629
427816,427816
427866,427866
428167,428167
428375,428375
428430,428430
428601,428601
428774,428774
428824,428824
428837,428837
429048,429048
429141,429141
429142,429142
429215,429215
429278,429278
429483,429483
429539,429539
429691,429691
429722,429722
429837,429837
429986,429986
430190,430190
430234,430234
430400,430400
430463,430463
430655,430655
430713,430713
430772,430772
430842,430842
430887,430887
430896,430896
430967,430967
430975,430975
431028,431028
431204,431204
431265,431265
431322,431322
431325,431325
431599,431599
431745,431745
431955,431955
432115,432115
432131,432131
432231,432231
432433,432433
432557,432557
432594,432594
433185,433185
433358,433358
433650,433650
433663,433663
433815,433815
433878,433878
433911,433911
434158,434158
434224,434224
434237,434237
434267,434267
434270,434270
434324,434324
434401,434401
434461,434461
434576,434576
434580,434580
434862,434862
434929,434929
434947,434947
435187,435187
435234,435234
435599,435599
435620,435620
435782,435782
435784,435784
435908,435908
435968,435968
436049,436049
436070,436070
436074,436074
436388,436388
436437,436437
436554,436554
436587,436587
436780,436780
437079,437079
437098,437098
437137,437137
437154,437154
437194,437194
437271,437271
437497,437497
437709,437709
437832,437832
438086,438086
438129,438129
438202,438202
438257,438257
438459,438459
438510,438510
438596,438596
438706,438706
438774,438774
438826,438826
438910,438910
438931,438931
438936,438936
438942,438942
438967,438967
439128,439128
439273,439273
439508,439508
439589,439589
440042,440042
440074,440074
440196,440196
440326,440326
440728,440728
441371,441371
441678,441678
441745,441745
441914,441914
442099,442099
442165,442165
442436,442436
442440,442440
442783,442783
442968,442968
443014,443014
443213,443213
443313,443313
443407,443407
443502,443502
443621,443621
443737,443737
443811,443811
444099,444099
444169,444169
444189,444189
444285,444285
444489,444489
444640,444640
444728,444728
444792,444792
444818,444818
444918,444918
444955,444955
445039,445039
445069,445069
445152,445152
445291,445291
445296,445296
445319,445319
445320,445320
445354,445354
445384,445384
445403,445403
445538,445538
445873,445873
446188,446188
446239,446239
446472,446472
446586,446586
446589,446589
446812,446812
446844,446844
447165,447165
447173,447173
447345,447345
447362,447362
447433,447433
447474,447474
447507,447507
447526,447526
447621,447621
447834,447834
447893,447893
448169,448169
448255,448255
448278,448278
448398,448398
448574,448574
448609,448609
448709,448709
448843,448843
448921,448921
449058,449058
449067,449067
449178,449178
449216,449216
449433,449433
449612,449612
449672,449672
450109,450109
450154,450154
450157,450157
450159,450159
450250,450250
450379,450379
450382,450382
450510,450510
451127,451127
451180,451180
451456,451456
451483,451483
451500,451500
451507,451507
451527,451527
451590,451590
451591,451591
451684,451684
451794,451794
451887,451887
451931,451931
452112,452112
452143,452143
452269,452269
452401,452401
452451,452451
452483,452483
452663,452663
452675,452675
452795,452795
452822,452822
452947,452947
453123,453123
453205,453205
453228,453228
453298,453298
453570,453570
453580,453580
453917,453917
454019,454019
454172,454172
454273,454273
454371,454371
454398,454398
454424,454424
454484,454484
454500,454500
454731,454731
454755,454755
454875,454875
454990,454990
455214,455214
455267,455267
455552,455552
455647,455647
455844,455844
455948,455948
456041,456041
456236,456236
456953,456953
457010,457010
457032,457032
457087,457087
457108,457108
457139,457139
457224,457224
457232,457232
457442,457442
457444,457444
457482,457482
457589,457589
458085,458085
458116,458116
458392,458392
458611,458611
458869,458869
458967,458967
459184,459184
459374,459374
459440,459440
459593,459593
459607,459607
459647,459647
459893,459893
460024,460024
460084,460084
460110,460110
460149,460149
460345,460345
460381,460381
460436,460436
460751,460751
460857,460857
460906,460906
461112,461112
461173,461173
461209,461209
461213,461213
461512,461512
461563,461563
461648,461648
461911,461911
461929,461929
461966,461966
462096,462096
462232,462232
462407,462407
462639,462639
462994,462994
463012,463012
463050,463050
463446,463446
463533,463533
463596,463596
463667,463667
463743,463743
463853,463853
463918,463918
463967,463967
464128,464128
464137,464137
464227,464227
464309,464309
464531,464531
464662,464662
464875,464875
465004,465004
465048,465048
465122,465122
465318,465318
465449,465449
465501,465501
465898,465898
465933,465933
466353,466353
466542,466542
466719,466719
466741,466741
466772,466772
466857,466857
466875,466875
466950,466950
467286,467286
467557,467557
467625,467625
467784,467784
467797,467797
467804,467804
467888,467888
467889,467889
467992,467992
468008,468008
468168,468168
468317,468317
468318,468318
468454,468454
468492,468492
468661,468661
468905,468905
469270,469270
469278,469278
469446,469446
469610,469610
469647,469647
469754,469754
470319,470319
470341,470341
470342,470342
470444,470444
470570,470570
470682,470682
470780,470780
470883,470883
471368,471368
471382,471382
471700,471700
471702,471702
471796,471796
472013,472013
472499,472499
472732,472732
472761,472761
473307,473307
473326,473326
473631,473631
473660,473660
473926,473926
473928,473928
473965,473965
474104,474104
474125,474125
474130,474130
474396,474396
475021,475021
475136,475136
475153,475153
475172,475172
475207,475207
475494,475494
475696,475696
475813,475813
475918,475918
476060,476060
476298,476298
476313,476313
476401,476401
476638,476638
476672,476672
476682,476682
476722,476722
477164,477164
477253,477253
477366,477366
477429,477429
477488,477488
477601,477601
477609,477609
477793,477793
477798,477798
477827,477827
477981,477981
478160,478160
478345,478345
478557,478557
478593,478593
478748,478748
478848,478848
478888,478888
478951,478951
479059,479059
479133,479133
479138,479138
479149,479149
479174,479174
479177,479177
479384,479384
479385,479385
479482,479482
479601,479601
479664,479664
479865,479865
480165,480165
480184,480184
480327,480327
480413,480413
480449,480449
480450,480450
480738,480738
480743,480743
480764,480764
480906,480906
481055,481055
481286,481286
481354,481354
481572,481572
481573,481573
481762,481762
481936,481936
482257,482257
482266,482266
482520,482520
482529,482529
482536,482536
482652,482652
482712,482712
482876,482876
482916,482916
483197,483197
483343,483343
483405,483405
483623,483623
483643,483643
484012,484012
484039,484039
484044,484044
484060,484060
484217,484217
484233,484233
484741,484741
484941,484941
484988,484988
485132,485132
485334,485334
485589,485589
485748,485748
485977,485977
486208,486208
486456,486456
486492,486492
486545,486545
486591,486591
486737,486737
486769,486769
486802,486802
486806,486806
487418,487418
487440,487440
487760,487760
487859,487859
487868,487868
488271,488271
488413,488413
488417,488417
488459,488459
488671,488671
488869,488869
488994,488994
489154,489154
489230,489230
489311,489311
489456,489456
489483,489483
489846,489846
489983,489983
489986,489986
490227,490227
490468,490468
490520,490520
490579,490579
490699,490699
490921,490921
491043,491043
491085,491085
491100,491100
491193,491193
491300,491300
491783,491783
491800,491800
491816,491816
491849,491849
491924,491924
492035,492035
492249,492249
492452,492452
492497,492497
492997,492997
493007,493007
493093,493093
493171,493171
493202,493202
493358,493358
493459,493459
493537,493537
493545,493545
493589,493589
493849,493849
493977,493977
493996,493996
494093,494093
494154,494154
494293,494293
494349,494349
494455,494455
494497,494497
494587,494587
494748,494748
494794,494794
494929,494929
494949,494949
495099,495099
495109,495109
495113,495113
495174,495174
495238,495238
495251,495251
495358,495358
495390,495390
495501,495501
495511,495511
495545,495545
495823,495823
495825,495825
495941,495941
496167,496167
496184,496184
496255,496255
496351,496351
496441,496441
496447,496447
496526,496526
496817,496817
496989,496989
497165,497165
497227,497227
497234,497234
497599,497599
497608,497608
498241,498241
498332,498332
498510,498510
498537,498537
498583,498583
498685,498685
498696,498696
498881,498881
499189,499189
499240,499240
499362,499362
499381,499381
499403,499403
499415,499415
499441,499441
499471,499471
499489,499489
499598,499598
499629,499629
499831,499831
500180,500180
500258,500258
500352,500352
500383,500383
500804,500804
500819,500819
500845,500845
500868,500868
501080,501080
501145,501145
501173,501173
501242,501242
501271,501271
501298,501298
501401,501401
501455,501455
501685,501685
501713,501713
501833,501833
501859,501859
501987,501987
502003,502003
502053,502053
502271,502271
502333,502333
502556,502556
502755,502755
503001,503001
503458,503458
503638,503638
503677,503677
504157,504157
504195,504195
504347,504347
504420,504420
504612,504612
504616,504616
504666,504666
504711,504711
504774,504774
505184,505184
505516,505516
505572,505572
505582,505582
505771,505771
505784,505784
505818,505818
505856,505856
506334,506334
506388,506388
506527,506527
506641,506641
506686,506686
506836,506836
506901,506901
506955,506955
507008,507008
507160,507160
507489,507489
507597,507597
507615,507615
507705,507705
507735,507735
507864,507864
508194,508194
508360,508360
508581,508581
508586,508586
508659,508659
508696,508696
508699,508699
508825,508825
509031,509031
509204,509204
509253,509253
509285,509285
509296,509296
509310,509310
509380,509380
509452,509452
509491,509491
509595,509595
510031,510031
510057,510057
510088,510088
510095,510095
510325,510325
510357,510357
510833,510833
510845,510845
511252,511252
511441,511441
511655,511655
512349,512349
512375,512375
512382,512382
512394,512394
512469,512469
512546,512546
512610,512610
512612,512612
512822,512822
512892,512892
512951,512951
512979,512979
513110,513110
513186,513186
513245,513245
513386,513386
513415,513415
513620,513620
513862,513862
513975,513975
513979,513979
513991,513991
514101,514101
514260,514260
514282,514282
514360,514360
514702,514702
514714,514714
514765,514765
514897,514897
515207,515207
515240,515240
515362,515362
515419,515419
515587,515587
515701,515701
515822,515822
516425,516425
516611,516611
516735,516735
516769,516769
516930,516930
517007,517007
517043,517043
517147,517147
517244,517244
517276,517276
517312,517312
517329,517329
517335,517335
517590,517590
517616,517616
517730,517730
517769,517769
517813,517813
517862,517862
517868,517868
517881,517881
517926,517926
517970,517970
518063,518063
518079,518079
518316,518316
518349,518349
518508,518508
518542,518542
518587,518587
518592,518592
518629,518629
518697,518697
518729,518729
518845,518845
519247,519247
519299,519299
519336,519336
519386,519386
519415,519415
519491,519491
519886,519886
520032,520032
520072,520072
520119,520119
520158,520158
520240,520240
520265,520265
520310,520310
520325,520325
520386,520386
520609,520609
520663,520663
520778,520778
520825,520825
521052,521052
521116,521116
521233,521233
521475,521475
521550,521550
521750,521750
521752,521752
521806,521806
521884,521884
521888,521888
521960,521960
522043,522043
522110,522110
522290,522290
522426,522426
522777,522777
522887,522887
522983,522983
523044,523044
523084,523084
523175,523175
523193,523193
523261,523261
523390,523390
523393,523393
523399,523399
523456,523456
523469,523469
523617,523617
523652,523652
524015,524015
524104,524104
524261,524261
524291,524291
524561,524561
524683,524683
524690,524690
524783,524783
524856,524856
525058,525058
525139,525139
525202,525202
525345,525345
525449,525449
525581,525581
525587,525587
525636,525636
525657,525657
525794,525794
526041,526041
526288,526288
526289,526289
526311,526311
526680,526680
526967,526967
527085,527085
527096,527096
527137,527137
527232,527232
527240,527240
527403,527403
527565,527565
527653,527653
527808,527808
527838,527838
527850,527850
527885,527885
528031,528031
528118,528118
528171,528171
528485,528485
528836,528836
528993,528993
529005,529005
529093,529093
529118,529118
529184,529184
529216,529216
529301,529301
529302,529302
529332,529332
529426,529426
529506,529506
529527,529527
529550,529550
529609,529609
530009,530009
530045,530045
530149,530149
530566,530566
530720,530720
530926,530926
531004,531004
531060,531060
531068,531068
531124,531124
531125,531125
531335,531335
531467,531467
531590,531590
531755,531755
532044,532044
532068,532068
532098,532098
532294,532294
532363,532363
532390,532390
532394,532394
532491,532491
532747,532747
532878,532878
533087,533087
533133,533133
533326,533326
533342,533342
533864,533864
533950,533950
533973,533973
533978,533978
534471,534471
534484,534484
534708,534708
534815,534815
535111,535111
535133,535133
535156,535156
535277,535277
535382,535382
535427,535427
535496,535496
535526,535526
535570,535570
535955,535955
536084,536084
536312,536312
536389,536389
536528,536528
536549,536549
536611,536611
536612,536612
536664,536664
536773,536773
536790,536790
536807,536807
536862,536862
536870,536870
536938,536938
536988,536988
537030,537030
537099,537099
537258,537258
537304,537304
537462,537462
537472,537472
537699,537699
537839,537839
537848,537848
538084,538084
538149,538149
538187,538187
538228,538228
538312,538312
538362,538362
538407,538407
538417,538417
538502,538502
538564,538564
538763,538763
538840,538840
539145,539145
539535,539535
539594,539594
539709,539709
539749,539749
540203,540203
540243,540243
540453,540453
540515,540515
540710,540710
541064,541064
541213,541213
541312,541312
541318,541318
541397,541397
541481,541481
541678,541678
541704,541704
541720,541720
541890,541890
541896,541896
541962,541962
542219,542219
542405,542405
542598,542598
542916,542916
542995,542995
543212,543212
543221,543221
543306,543306
543360,543360
543391,543391
543428,543428
543434,543434
543626,543626
543810,543810
543847,543847
543928,543928
543957,543957
544081,544081
544177,544177
544263,544263
544265,544265
544319,544319
544371,544371
544387,544387
544626,544626
544630,544630
544661,544661
544664,544664
544740,544740
544844,544844
544879,544879
545315,545315
545412,545412
545793,545793
545852,545852
545883,545883
545922,545922
546230,546230
546383,546383
546742,546742
546838,546838
546841,546841
547095,547095
547336,547336
547574,547574
547700,547700
547702,547702
547800,547800
547854,547854
547962,547962
547976,547976
548051,548051
548171,548171
548228,548228
548361,548361
548657,548657
548773,548773
548929,548929
548977,548977
549059,549059
549095,549095
549165,549165
549176,549176
549187,549187
549252,549252
549261,549261
549415,549415
549442,549442
549446,549446
549543,549543
549670,549670
549710,549710
550196,550196
550501,550501
550509,550509
550530,550530
550618,550618
550745,550745
550774,550774
550798,550798
551199,551199
551546,551546
551621,551621
551761,551761
551783,551783
551882,551882
551983,551983
551986,551986
551993,551993
552009,552009
552056,552056
552175,552175
552265,552265
552425,552425
552516,552516
552815,552815
552848,552848
552948,552948
553050,553050
553131,553131
553135,553135
553292,553292
553309,553309
553346,553346
553388,553388
553484,553484
553576,553576
553863,553863
553978,553978
553999,553999
554201,554201
554205,554205
554231,554231
554306,554306
554373,554373
554494,554494
554599,554599
554713,554713
555173,555173
555341,555341
555353,555353
555386,555386
555392,555392
555483,555483
555505,555505
555561,555561
555683,555683
555704,555704
555771,555771
555776,555776
555828,555828
555995,555995
556096,556096
556163,556163
556203,556203
556383,556383
556418,556418
556430,556430
556666,556666
556678,556678
556688,556688
556827,556827
556831,556831
556836,556836
556899,556899
557115,557115
557236,557236
557407,557407
557421,557421
557516,557516
557518,557518
557552,557552
557617,557617
557715,557715
557930,557930
557979,557979
558129,558129
558139,558139
558277,558277
558317,558317
558323,558323
558831,558831
558992,558992
559010,559010
559168,559168
559241,559241
559450,559450
559608,559608
559775,559775
560033,560033
560169,560169
560213,560213
560370,560370
560421,560421
560442,560442
560587,560587
560729,560729
560940,560940
561113,561113
561354,561354
561560,561560
561585,561585
561682,561682
561779,561779
561869,561869
561884,561884
561911,561911
561993,561993
562109,562109
562237,562237
562334,562334
562555,562555
562633,562633
562641,562641
562665,562665
562739,562739
562753,562753
562879,562879
562940,562940
562941,562941
562979,562979
563181,563181
563480,563480
563621,563621
563637,563637
563715,563715
563718,563718
563725,563725
564019,564019
564090,564090
564141,564141
564161,564161
564319,564319
564437,564437
564516,564516
564536,564536
564833,564833
565068,565068
565098,565098
565574,565574
565580,565580
565608,565608
565787,565787
565805,565805
565921,565921
565979,565979
566042,566042
566074,566074
566081,566081
566263,566263
566389,566389
566467,566467
566590,566590
566718,566718
566763,566763
566781,566781
566935,566935
567158,567158
567171,567171
567247,567247
567894,567894
568111,568111
568225,568225
568637,568637
568658,568658
568670,568670
568829,568829
568872,568872
569036,569036
569101,569101
569228,569228
569233,569233
569260,569260
569540,569540
569698,569698
569759,569759
569770,569770
570013,570013
570027,570027
570126,570126
570295,570295
570312,570312
570650,570650
570909,570909
570917,570917
571129,571129
571212,571212
571465,571465
571662,571662
571775,571775
571861,571861
571885,571885
571894,571894
571923,571923
572317,572317
572766,572766
572855,572855
572953,572953
572969,572969
573110,573110
573529,573529
573631,573631
573694,573694
573925,573925
573987,573987
574043,574043
574150,574150
574213,574213
574264,574264
574648,574648
574710,574710
574905,574905
574912,574912
575425,575425
575493,575493
575794,575794
575810,575810
575909,575909
576036,576036
576219,576219
576288,576288
576742,576742
576764,576764
577102,577102
577105,577105
577275,577275
577404,577404
577632,577632
577883,577883
577947,577947
577966,577966
578028,578028
578057,578057
578092,578092
578203,578203
578228,578228
578428,578428
578459,578459
578517,578517
578696,578696
579078,579078
579190,579190
579225,579225
579368,579368
579462,579462
579502,579502
579543,579543
579773,579773
579808,579808
579947,579947
580141,580141
580205,580205
580236,580236
580310,580310
580418,580418
580488,580488
580519,580519
580753,580753
580779,580779
580884,580884
580945,580945
581304,581304
581312,581312
581354,581354
581534,581534
581695,581695
581785,581785
582040,582040
582211,582211
582296,582296
582442,582442
582629,582629
582771,582771
582838,582838
582859,582859
582896,582896
582935,582935
582987,582987
583291,583291
583350,583350
583374,583374
583461,583461
583471,583471
583480,583480
583498,583498
583556,583556
583738,583738
583980,583980
584124,584124
584369,584369
584381,584381
584411,584411
584663,584663
584733,584733
584776,584776
584870,584870
584917,584917
584923,584923
584978,584978
585214,585214
585274,585274
585344,585344
585471,585471
585532,585532
585793,585793
585899,585899
586017,586017
586123,586123
586317,586317
586633,586633
586765,586765
586909,586909
586910,586910
586922,586922
587486,587486
587560,587560
587944,587944
588615,588615
588660,588660
588684,588684
588738,588738
588747,588747
588796,588796
588922,588922
589016,589016
589103,589103
589192,589192
589264,589264
589367,589367
589369,589369
589435,589435
589449,589449
589894,589894
590253,590253
590389,590389
590502,590502
590539,590539
590555,590555
590673,590673
590695,590695
590698,590698
590760,590760
590802,590802
591305,591305
591575,591575
591582,591582
591668,591668
591696,591696
591974,591974
591975,591975
591990,591990
592156,592156
592292,592292
592307,592307
592336,592336
592477,592477
592509,592509
592511,592511
592867,592867
592883,592883
592923,592923
593035,593035
593119,593119
593232,593232
593403,593403
593482,593482
593543,593543
593694,593694
593721,593721
593786,593786
593902,593902
594051,594051
594073,594073
594185,594185
594550,594550
594700,594700
594762,594762
594932,594932
595127,595127
595170,595170
595395,595395
595417,595417
595449,595449
595483,595483
595553,595553
595629,595629
595691,595691
595720,595720
596099,596099
596512,596512
596611,596611
597028,597028
597035,597035
597099,597099
597676,597676
597772,597772
597941,597941
598047,598047
598106,598106
598274,598274
598295,598295
598610,598610
598853,598853
598997,598997
599007,599007
599239,599239
599331,599331
599486,599486
599577,599577
599660,599660
600106,600106
600125,600125
600241,600241
600318,600318
600373,600373
600387,600387
600592,600592
601108,601108
601158,601158
601179,601179
601201,601201
601281,601281
601340,601340
601564,601564
601983,601983
602042,602042
602066,602066
602137,602137
602476,602476
602736,602736
602749,602749
602947,602947
603243,603243
603286,603286
603561,603561
603756,603756
603880,603880
603975,603975
604138,604138
604258,604258
604795,604795
604812,604812
604939,604939
604979,604979
604999,604999
605223,605223
605290,605290
605321,605321
605379,605379
605421,605421
605510,605510
605583,605583
605608,605608
605768,605768
605902,605902
605992,605992
606097,606097
606113,606113
606130,606130
606200,606200
606260,606260
606264,606264
606315,606315
606334,606334
606354,606354
606553,606553
606622,606622
606634,606634
606979,606979
607051,607051
607060,607060
607106,607106
607232,607232
607256,607256
607286,607286
607322,607322
607387,607387
607393,607393
607440,607440
607516,607516
607550,607550
607716,607716
607737,607737
607791,607791
607792,607792
607826,607826
608027,608027
608183,608183
608225,608225
608246,608246
608289,608289
608325,608325
608466,608466
608470,608470
608479,608479
608577,608577
608714,608714
608762,608762
609027,609027
609183,609183
609236,609236
609412,609412
609656,609656
610130,610130
610161,610161
610599,610599
610743,610743
610796,610796
610917,610917
611111,611111
611173,611173
611184,611184
611196,611196
611203,611203
611213,611213
611293,611293
611334,611334
611554,611554
611621,611621
611825,611825
611937,611937
612087,612087
612298,612298
612316,612316
612648,612648
613425,613425
613587,613587
613607,613607
613659,613659
613719,613719
613740,613740
613746,613746
613921,613921
614030,614030
614118,614118
614128,614128
614129,614129
614235,614235
614568,614568
614626,614626
614712,614712
614731,614731
614922,614922
614953,614953
615025,615025
615046,615046
615154,615154
615393,615393
615413,615413
615656,615656
615688,615688
615759,615759
616039,616039
616080,616080
616110,616110
616210,616210
616322,616322
616772,616772
616801,616801
616812,616812
617056,617056
617468,617468
617606,617606
617965,617965
617983,617983
618041,618041
618410,618410
618416,618416
618542,618542
618585,618585
618696,618696
618805,618805
618866,618866
618888,618888
619007,619007
619077,619077
619177,619177
619325,619325
619345,619345
619396,619396
619674,619674
619708,619708
619782,619782
619809,619809
619867,619867
620080,620080
620153,620153
620177,620177
620198,620198
620215,620215
620334,620334
620547,620547
620806,620806
620837,620837
620940,620940
621034,621034
621182,621182
621237,621237
621319,621319
621556,621556
621679,621679
621839,621839
621921,621921
622029,622029
622367,622367
622368,622368
622505,622505
623059,623059
623060,623060
623377,623377
623397,623397
623468,623468
623538,623538
623823,623823
623835,623835
623888,623888
624052,624052
624148,624148
624613,624613
624706,624706
624711,624711
625140,625140
625251,625251
625396,625396
625434,625434
625460,625460
625511,625511
625540,625540
625648,625648
625654,625654
625675,625675
625691,625691
625834,625834
625836,625836
625899,625899
625979,625979
626190,626190
626224,626224
626225,626225
626245,626245
626248,626248
626356,626356
626485,626485
626519,626519
626567,626567
626896,626896
626906,626906
626947,626947
627075,627075
627130,627130
627290,627290
627333,627333
627381,627381
627556,627556
627559,627559
627616,627616
627643,627643
627696,627696
627910,627910
628073,628073
628094,628094
628207,628207
628230,628230
628260,628260
628337,628337
628360,628360
628824,628824
628841,628841
628984,628984
629037,629037
629108,629108
629444,629444
629561,629561
629575,629575
629776,629776
629792,629792
629938,629938
630310,630310
630332,630332
630358,630358
630578,630578
630645,630645
630684,630684
630714,630714
630821,630821
630904,630904
631042,631042
631074,631074
631113,631113
631411,631411
631412,631412
631420,631420
631456,631456
631529,631529
631543,631543
631635,631635
631737,631737
631784,631784
631826,631826
631873,631873
631953,631953
632095,632095
632268,632268
632369,632369
632537,632537
632622,632622
632699,632699
632718,632718
632781,632781
632793,632793
632796,632796
632858,632858
632863,632863
633138,633138
633155,633155
633249,633249
633303,633303
633511,633511
633592,633592
633910,633910
633944,633944
634017,634017
634030,634030
634064,634064
634244,634244
634388,634388
634399,634399
634425,634425
634563,634563
634675,634675
634719,634719
634810,634810
634871,634871
635110,635110
635153,635153
635190,635190
635196,635196
635233,635233
635246,635246
635276,635276
635718,635718
635741,635741
635778,635778
635824,635824
635910,635910
635963,635963
636069,636069
636109,636109
636130,636130
636146,636146
636220,636220
636632,636632
636884,636884
636943,636943
637158,637158
637194,637194
637361,637361
637376,637376
637542,637542
637697,637697
637944,637944
638554,638554
638794,638794
638879,638879
639132,639132
639140,639140
639371,639371
639560,639560
639581,639581
639618,639618
639651,639651
639716,639716
639717,639717
639830,639830
639843,639843
639904,639904
640092,640092
640343,640343
640391,640391
640427,640427
640576,640576
640819,640819
640838,640838
640903,640903
641021,641021
641153,641153
641214,641214
641302,641302
641516,641516
641547,641547
641564,641564
641582,641582
641670,641670
641769,641769
642027,642027
642079,642079
642123,642123
642190,642190
642388,642388
642451,642451
642569,642569
642772,642772
643081,643081
643187,643187
643521,643521
643698,643698
643834,643834
643980,643980
644059,644059
644064,644064
644105,644105
644341,644341
644356,644356
644376,644376
644542,644542
644555,644555
644711,644711
645028,645028
645125,645125
645296,645296
645463,645463
645615,645615
645707,645707
645777,645777
646123,646123
646344,646344
646363,646363
646838,646838
647038,647038
647133,647133
647173,647173
647236,647236
647439,647439
647654,647654
647894,647894
648004,648004
648014,648014
648077,648077
648179,648179
648343,648343
648417,648417
648424,648424
648488,648488
648534,648534
648577,648577
648917,648917
649209,649209
649210,649210
649233,649233
649240,649240
649272,649272
649378,649378
649812,649812
649823,649823
649941,649941
650023,650023
650053,650053
650094,650094
650196,650196
650325,650325
650359,650359
650720,650720
650732,650732
650791,650791
650883,650883
651611,651611
651663,651663
651879,651879
651915,651915
652229,652229
652264,652264
652389,652389
652406,652406
652524,652524
652599,652599
652737,652737
652829,652829
652938,652938
652960,652960
653129,653129
653132,653132
653191,653191
653249,653249
653324,653324
653346,653346
653427,653427
653633,653633
653668,653668
653684,653684
653882,653882
653991,653991
654040,654040
654317,654317
654350,654350
654521,654521
654560,654560
654657,654657
654664,654664
654716,654716
654825,654825
654948,654948
655094,655094
655190,655190
655377,655377
655788,655788
655809,655809
656321,656321
656853,656853
656927,656927
657059,657059
657251,657251
657265,657265
657279,657279
657286,657286
657301,657301
657616,657616
657846,657846
658064,658064
658127,658127
658354,658354
658366,658366
658481,658481
658539,658539
658709,658709
658875,658875
658885,658885
659059,659059
659241,659241
659259,659259
659499,659499
659644,659644
659697,659697
659787,659787
659791,659791
659898,659898
659920,659920
660005,660005
660020,660020
660375,660375
660561,660561
660654,660654
660726,660726
660936,660936
660986,660986
661171,661171
661215,661215
661431,661431
661455,661455
661467,661467
661565,661565
661587,661587
661955,661955
662264,662264
662362,662362
662433,662433
662583,662583
662618,662618
662729,662729
662921,662921
662969,662969
663004,663004
663051,663051
663068,663068
663095,663095
663162,663162
663169,663169
663386,663386
663460,663460
663640,663640
663709,663709
663804,663804
663981,663981
664060,664060
664071,664071
664089,664089
664092,664092
664239,664239
664275,664275
664314,664314
664326,664326
664337,664337
664416,664416
664568,664568
664652,664652
664736,664736
664882,664882
665313,665313
665395,665395
665397,665397
665431,665431
665438,665438
665449,665449
665510,665510
665548,665548
665629,665629
665633,665633
665744,665744
665904,665904
666019,666019
666055,666055
666752,666752
666849,666849
666972,666972
666983,666983
667018,667018
667020,667020
667077,667077
667120,667120
667154,667154
667201,667201
667361,667361
667456,667456
667461,667461
667521,667521
667576,667576
667661,667661
667716,667716
667839,667839
667956,667956
668211,668211
668247,668247
668465,668465
668474,668474
668625,668625
668644,668644
668811,668811
669125,669125
669251,669251
669509,669509
669562,669562
669620,669620
669789,669789
669845,669845
670409,670409
670497,670497
670602,670602
670897,670897
670936,670936
670980,670980
670995,670995
671200,671200
671212,671212
671311,671311
671357,671357
671514,671514
671639,671639
671923,671923
671983,671983
672307,672307
672521,672521
672790,672790
672811,672811
672983,672983
673004,673004
673137,673137
673232,673232
673246,673246
673353,673353
673359,673359
673434,673434
673448,673448
673506,673506
673514,673514
673598,673598
673612,673612
673694,673694
673710,673710
673745,673745
673804,673804
673860,673860
673980,673980
674061,674061
674116,674116
674323,674323
674384,674384
674487,674487
674603,674603
674707,674707
674907,674907
675151,675151
675206,675206
675395,675395
675593,675593
675602,675602
675839,675839
675849,675849
675860,675860
675955,675955
676041,676041
676209,676209
676250,676250
676393,676393
676595,676595
676629,676629
676968,676968
677217,677217
677290,677290
677437,677437
677505,677505
677540,677540
677803,677803
677855,677855
678028,678028
678224,678224
678345,678345
678470,678470
678506,678506
678590,678590
678680,678680
678748,678748
678884,678884
679012,679012
679049,679049
679332,679332
679366,679366
679688,679688
679690,679690
679743,679743
679972,679972
679979,679979
680089,680089
680107,680107
680351,680351
680515,680515
680975,680975
680984,680984
681116,681116
681119,681119
681183,681183
681220,681220
681571,681571
681801,681801
681937,681937
682070,682070
682123,682123
682127,682127
682136,682136
682154,682154
682190,682190
682217,682217
682222,682222
682491,682491
682728,682728
682830,682830
682860,682860
682964,682964
683007,683007
683124,683124
683129,683129
683253,683253
683518,683518
683678,683678
683827,683827
683843,683843
683849,683849
683925,683925
683959,683959
684112,684112
684149,684149
684183,684183
684228,684228
684380,684380
684385,684385
684388,684388
684494,684494
684606,684606
684612,684612
684666,684666
684871,684871
684918,684918
684935,684935
684956,684956
685249,685249
685513,685513
685646,685646
685735,685735
685736,685736
685998,685998
686001,686001
686101,686101
686118,686118
686119,686119
686147,686147
686158,686158
686162,686162
686300,686300
686625,686625
686692,686692
686829,686829
686950,686950
687131,687131
687306,687306
687591,687591
687611,687611
687846,687846
687859,687859
687940,687940
688020,688020
688060,688060
688167,688167
688282,688282
688402,688402
688555,688555
688790,688790
688944,688944
688954,688954
689026,689026
689266,689266
689293,689293
689450,689450
689500,689500
689589,689589
689714,689714
689808,689808
689826,689826
689847,689847
690122,690122
690348,690348
690356,690356
690524,690524
690568,690568
690784,690784
690844,690844
691103,691103
691134,691134
691307,691307
691326,691326
691355,691355
691452,691452
691492,691492
691554,691554
691562,691562
691662,691662
691695,691695
691824,691824
692080,692080
692161,692161
692195,692195
692277,692277
692362,692362
692498,692498
692512,692512
692634,692634
692718,692718
692736,692736
692740,692740
692869,692869
692899,692899
693047,693047
693095,693095
693331,693331
693471,693471
693493,693493
693510,693510
693690,693690
693708,693708
693725,693725
694295,694295
694416,694416
694434,694434
694457,694457
694590,694590
694633,694633
694732,694732
695215,695215
695323,695323
695486,695486
695606,695606
695740,695740
695857,695857
696148,696148
696393,696393
696569,696569
696693,696693
696725,696725
696762,696762
696848,696848
696857,696857
697005,697005
697008,697008
697047,697047
697064,697064
697247,697247
697266,697266
697301,697301
697311,697311
697451,697451
697567,697567
697649,697649
697914,697914
697960,697960
697969,697969
698072,698072
698132,698132
698248,698248
698282,698282
698310,698310
698343,698343
698963,698963
699044,699044
699079,699079
699091,699091
699321,699321
699375,699375
699795,699795
699971,699971
700056,700056
700126,700126
700146,700146
700268,700268
700472,700472
700649,700649
700663,700663
700763,700763
700985,700985
701178,701178
701401,701401
701560,701560
701589,701589
701676,701676
701918,701918
701926,701926
701960,701960
702050,702050
702096,702096
702169,702169
702555,702555
702720,702720
702794,702794
702837,702837
702959,702959
703196,703196
703220,703220
703355,703355
703400,703400
703548,703548
703816,703816
704064,704064
704086,704086
704138,704138
704291,704291
704315,704315
704347,704347
704494,704494
704664,704664
704773,704773
704853,704853
704924,704924
704934,704934
704964,704964
704998,704998
705884,705884
705889,705889
705947,705947
706073,706073
706111,706111
706177,706177
706299,706299
706405,706405
706488,706488
706528,706528
706588,706588
706698,706698
706807,706807
706820,706820
706972,706972
706990,706990
707068,707068
707259,707259
707455,707455
707752,707752
707911,707911
708037,708037
708078,708078
708109,708109
708195,708195
708278,708278
708433,708433
708462,708462
708555,708555
708604,708604
708650,708650
708719,708719
708987,708987
709047,709047
709056,709056
709345,709345
709457,709457
709541,709541
709849,709849
709861,709861
710189,710189
710197,710197
710208,710208
710373,710373
710660,710660
710752,710752
710790,710790
710905,710905
710994,710994
711083,711083
711421,711421
711565,711565
711567,711567
711584,711584
711809,711809
712018,712018
712116,712116
712136,712136
712255,712255
712680,712680
712704,712704
712892,712892
712922,712922
712938,712938
713318,713318
713455,713455
713464,713464
713738,713738
713777,713777
713864,713864
713942,713942
714006,714006
714060,714060
714061,714061
714152,714152
714240,714240
714245,714245
714439,714439
714539,714539
714696,714696
714705,714705
714717,714717
714788,714788
714802,714802
714827,714827
714929,714929
715127,715127
715162,715162
715247,715247
715446,715446
715542,715542
716029,716029
716135,716135
716167,716167
716173,716173
716282,716282
716317,716317
716388,716388
716575,716575
716680,716680
716744,716744
716945,716945
716981,716981
716985,716985
717015,717015
717200,717200
717228,717228
717241,717241
717281,717281
717351,717351
717436,717436
717690,717690
718075,718075
718373,718373
718428,718428
718480,718480
718565,718565
718592,718592
718734,718734
718889,718889
719040,719040
719239,719239
719440,719440
719563,719563
719589,719589
719638,719638
719654,719654
719656,719656
719692,719692
719744,719744
719774,719774
719895,719895
719983,719983
720002,720002
720079,720079
720185,720185
720547,720547
720576,720576
720656,720656
720887,720887
721009,721009
721057,721057
721226,721226
721457,721457
721556,721556
721568,721568
721570,721570
721860,721860
721950,721950
722499,722499
723026,723026
723196,723196
723674,723674
723915,723915
723944,723944
724130,724130
724173,724173
724349,724349
724459,724459
724591,724591
724613,724613
724709,724709
725031,725031
725206,725206
725209,725209
725475,725475
725528,725528
725552,725552
725604,725604
725836,725836
725993,725993
726077,726077
726144,726144
726167,726167
726256,726256
726280,726280
726647,726647
726671,726671
726787,726787
726843,726843
726991,726991
727022,727022
727127,727127
727197,727197
727223,727223
727374,727374
727523,727523
727663,727663
727725,727725
727774,727774
727852,727852
727865,727865
727884,727884
728296,728296
728304,728304
728415,728415
728480,728480
728484,728484
728794,728794
728813,728813
729048,729048
729227,729227
729234,729234
729242,729242
729453,729453
729632,729632
729826,729826
730436,730436
730524,730524
730640,730640
730646,730646
730667,730667
730893,730893
731059,731059
731200,731200
731225,731225
731353,731353
731407,731407
731424,731424
731563,731563
731670,731670
731700,731700
731828,731828
731900,731900
731972,731972
732094,732094
732146,732146
732223,732223
732313,732313
732507,732507
732605,732605
732782,732782
732863,732863
732866,732866
732870,732870
732930,732930
732943,732943
733185,733185
733265,733265
733302,733302
733389,733389
733540,733540
733596,733596
734011,734011
734205,734205
734226,734226
734335,734335
734656,734656
734765,734765
734910,734910
734984,734984
735951,735951
735978,735978
736044,736044
736204,736204
736226,736226
736599,736599
736770,736770
737074,737074
737105,737105
737202,737202
737240,737240
737265,737265
737300,737300
737507,737507
737547,737547
737803,737803
737821,737821
737997,737997
738291,738291
738376,738376
738400,738400
738408,738408
738470,738470
738606,738606
738883,738883
738932,738932
739116,739116
739142,739142
739159,739159
739207,739207
739322,739322
739340,739340
739515,739515
739524,739524
739554,739554
739600,739600
739819,739819
739913,739913
739984,739984
740217,740217
740238,740238
740241,740241
740337,740337
740510,740510
740575,740575
740618,740618
740768,740768
740771,740771
740867,740867
741380,741380
741530,741530
741579,741579
741593,741593
741685,741685
741743,741743
741788,741788
741999,741999
742159,742159
742184,742184
742219,742219
742366,742366
742897,742897
743049,743049
743229,743229
743418,743418
743621,743621
743668,743668
743731,743731
743735,743735
743752,743752
743809,743809
743856,743856
743881,743881
743904,743904
744064,744064
744085,744085
744252,744252
744262,744262
744317,744317
744652,744652
744671,744671
744752,744752
744784,744784
744864,744864
744958,744958
744992,744992
745026,745026
745034,745034
745367,745367
745433,745433
745695,745695
745734,745734
745784,745784
745979,745979
745994,745994
746047,746047
746363,746363
746470,746470
746666,746666
746872,746872
746894,746894
746926,746926
746964,746964
746974,746974
746990,746990
747013,747013
747019,747019
747169,747169
747280,747280
747541,747541
748277,748277
748331,748331
748332,748332
748667,748667
748730,748730
748757,748757
748888,748888
749095,749095
749205,749205
749430,749430
749689,749689
749706,749706
749772,749772
749778,749778
749858,749858
749919,749919
750252,750252
750399,750399
750440,750440
750445,750445
750695,750695
750868,750868
750917,750917
750957,750957
750988,750988
751150,751150
751159,751159
751368,751368
751617,751617
751770,751770
751912,751912
752036,752036
752363,752363
752724,752724
753036,753036
753173,753173
753193,753193
753259,753259
753298,753298
753299,753299
753300,753300
753342,753342
753605,753605
753645,753645
753686,753686
753809,753809
753928,753928
754133,754133
754189,754189
754451,754451
754495,754495
754563,754563
754681,754681
754916,754916
754975,754975
755035,755035
755046,755046
755086,755086
755226,755226
755632,755632
755730,755730
755732,755732
755800,755800
756075,756075
756076,756076
756124,756124
756171,756171
756263,756263
756303,756303
756747,756747
756780,756780
756787,756787
756836,756836
756840,756840
756873,756873
756877,756877
757049,757049
757263,757263
757353,757353
757464,757464
757469,757469
757844,757844
757850,757850
757869,757869
757881,757881
757935,757935
757965,757965
758080,758080
758165,758165
758171,758171
758274,758274
758600,758600
758710,758710
759312,759312
759396,759396
759434,759434
759508,759508
759861,759861
760002,760002
760007,760007
760022,760022
760137,760137
760146,760146
760683,760683
760743,760743
760801,760801
760963,760963
761201,761201
761300,761300
761323,761323
761346,761346
761454,761454
761548,761548
761630,761630
761636,761636
762022,762022
762088,762088
762261,762261
762324,762324
762329,762329
762406,762406
762410,762410
762455,762455
762568,762568
762575,762575
762581,762581
762586,762586
762700,762700
762774,762774
762855,762855
763144,763144
763258,763258
763270,763270
763335,763335
763638,763638
763678,763678
763883,763883
763924,763924
763949,763949
764045,764045
764104,764104
764152,764152
764259,764259
764393,764393
764552,764552
764629,764629
764717,764717
764718,764718
764776,764776
764791,764791
764798,764798
764877,764877
765021,765021
765114,765114
765186,765186
765382,765382
765550,765550
765626,765626
765646,765646
765682,765682
765774,765774
765894,765894
765950,765950
765960,765960
766078,766078
766120,766120
766152,766152
766271,766271
766273,766273
766321,766321
766345,766345
766535,766535
766827,766827
767066,767066
767165,767165
767196,767196
767256,767256
767283,767283
767304,767304
767365,767365
767433,767433
767559,767559
767600,767600
767739,767739
767762,767762
767974,767974
768098,768098
768179,768179
768639,768639
768662,768662
768665,768665
768727,768727
768743,768743
768801,768801
768892,768892
769029,769029
769095,769095
769138,769138
769353,769353
769400,769400
769488,769488
769569,769569
769742,769742
770055,770055
770157,770157
770158,770158
770334,770334
770582,770582
770948,770948
771055,771055
771122,771122
771412,771412
771599,771599
771798,771798
771817,771817
771875,771875
771958,771958
771980,771980
772179,772179
772232,772232
772236,772236
772357,772357
772420,772420
772466,772466
772473,772473
772618,772618
772677,772677
772721,772721
772739,772739
772844,772844
772898,772898
772934,772934
772958,772958
772979,772979
773047,773047
773054,773054
773281,773281
773332,773332
773382,773382
773454,773454
773540,773540
773561,773561
773581,773581
773596,773596
773762,773762
774037,774037
774079,774079
774187,774187
774346,774346
774604,774604
774793,774793
775023,775023
775049,775049
775052,775052
775190,775190
775501,775501
775645,775645
775703,775703
776144,776144
776154,776154
776296,776296
776304,776304
776443,776443
776558,776558
776562,776562
776695,776695
776716,776716
776733,776733
776747,776747
776825,776825
776873,776873
776881,776881
776973,776973
777080,777080
777321,777321
777350,777350
777465,777465
777572,777572
777731,777731
777964,777964
778009,778009
778308,778308
778316,778316
778512,778512
778540,778540
778700,778700
778743,778743
779021,779021
779223,779223
779330,779330
779357,779357
779408,779408
779510,779510
779708,779708
779829,779829
779932,779932
779979,779979
780028,780028
780061,780061
780095,780095
780471,780471
780511,780511
780586,780586
780606,780606
780644,780644
780669,780669
780735,780735
780760,780760
780917,780917
780991,780991
781147,781147
781309,781309
781659,781659
781950,781950
781975,781975
782005,782005
782059,782059
782276,782276
782432,782432
782629,782629
782698,782698
782699,782699
782722,782722
782741,782741
783092,783092
783133,783133
783257,783257
783273,783273
783394,783394
783426,783426
783436,783436
783885,783885
783969,783969
784010,784010
784117,784117
784462,784462
784515,784515
784666,784666
784683,784683
784828,784828
784833,784833
785067,785067
785105,785105
785235,785235
785252,785252
785309,785309
785532,785532
785597,785597
785630,785630
785709,785709
785723,785723
785950,785950
786098,786098
786280,786280
786410,786410
787070,787070
787388,787388
787491,787491
787535,787535
787542,787542
787553,787553
788069,788069
788392,788392
788456,788456
788819,788819
789042,789042
789139,789139
789145,789145
789293,789293
789391,789391
789500,789500
789540,789540
789696,789696
789756,789756
789865,789865
789895,789895
790027,790027
790042,790042
790168,790168
790304,790304
790448,790448
790547,790547
790750,790750
790787,790787
791005,791005
791165,791165
791198,791198
791517,791517
791584,791584
791728,791728
791909,791909
791935,791935
791979,791979
792199,792199
792273,792273
792300,792300
792396,792396
792426,792426
792452,792452
792655,792655
792669,792669
792933,792933
793040,793040
793116,793116
793371,793371
793467,793467
793522,793522
793535,793535
793612,793612
793624,793624
793740,793740
794124,794124
794467,794467
794618,794618
794677,794677
795057,795057
795122,795122
795151,795151
795155,795155
795260,795260
795401,795401
795494,795494
795541,795541
795649,795649
795835,795835
795857,795857
796154,796154
796289,796289
796560,796560
796652,796652
796786,796786
796978,796978
796985,796985
797383,797383
797558,797558
797814,797814
797907,797907
798044,798044
798108,798108
798267,798267
798273,798273
798296,798296
798339,798339
798403,798403
798574,798574
798824,798824
798959,798959
799143,799143
799261,799261
799336,799336
799352,799352
799801,799801
799823,799823
799867,799867
800008,800008
800073,800073
800177,800177
800182,800182
800347,800347
800348,800348
800458,800458
800465,800465
800485,800485
800487,800487
800609,800609
800675,800675
800841,800841
800928,800928
801107,801107
801116,801116
801132,801132
801159,801159
801184,801184
801192,801192
801219,801219
801433,801433
801495,801495
801586,801586
801687,801687
802110,802110
802160,802160
802222,802222
802295,802295
802379,802379
802406,802406
802450,802450
802547,802547
802744,802744
802881,802881
802906,802906
802918,802918
802992,802992
803001,803001
803089,803089
803124,803124
803675,803675
803734,803734
803737,803737
803741,803741
803889,803889
804068,804068
804085,804085
804359,804359
804367,804367
804482,804482
804599,804599
804797,804797
804920,804920
805052,805052
805361,805361
805394,805394
805659,805659
805747,805747
805750,805750
805817,805817
805899,805899
805938,805938
806088,806088
806147,806147
806292,806292
806424,806424
806532,806532
806738,806738
806933,806933
806972,806972
807041,807041
807098,807098
807218,807218
807267,807267
807437,807437
807931,807931
807970,807970
808022,808022
808185,808185
808225,808225
808448,808448
808681,808681
808717,808717
808758,808758
808781,808781
808821,808821
808993,808993
809040,809040
809091,809091
809126,809126
809237,809237
809304,809304
809326,809326
809555,809555
809643,809643
809733,809733
809796,809796
809819,809819
809833,809833
809991,809991
810317,810317
810444,810444
810510,810510
810684,810684
810687,810687
810801,810801
810816,810816
810836,810836
810871,810871
810916,810916
810927,810927
810980,810980
811216,811216
811349,811349
811399,811399
811464,811464
811579,811579
811711,811711
811749,811749
812199,812199
812231,812231
812301,812301
812347,812347
812373,812373
812595,812595
813253,813253
813255,813255
813304,813304
813307,813307
813328,813328
813497,813497
813527,813527
813570,813570
813581,813581
813689,813689
813706,813706
813736,813736
813809,813809
813821,813821
813841,813841
813996,813996
814043,814043
814319,814319
814360,814360
814479,814479
815076,815076
815133,815133
815150,815150
815497,815497
815581,815581
815792,815792
815824,815824
815918,815918
816056,816056
816094,816094
816209,816209
816411,816411
816605,816605
816737,816737
816837,816837
817098,817098
817166,817166
817168,817168
817180,817180
817186,817186
817332,817332
817375,817375
817483,817483
817501,817501
817662,817662
817751,817751
817847,817847
818165,818165
818190,818190
818192,818192
818270,818270
818354,818354
818380,818380
818410,818410
819017,819017
819221,819221
819296,819296
819497,819497
819520,819520
819845,819845
820048,820048
820260,820260
820556,820556
820832,820832
820970,820970
820991,820991
821220,821220
821320,821320
821571,821571
821613,821613
821638,821638
821735,821735
821820,821820
821862,821862
821916,821916
822116,822116
822361,822361
822478,822478
822707,822707
822934,822934
822976,822976
823165,823165
823309,823309
823343,823343
823495,823495
823793,823793
823810,823810
823905,823905
824048,824048
824319,824319
824325,824325
824342,824342
824601,824601
825031,825031
825187,825187
825265,825265
825267,825267
825477,825477
825608,825608
825618,825618
825799,825799
825800,825800
826082,826082
826125,826125
826154,826154
826165,826165
826347,826347
826530,826530
826685,826685
826768,826768
826785,826785
826951,826951
827293,827293
827342,827342
827380,827380
827471,827471
827535,827535
827611,827611
827635,827635
827718,827718
827920,827920
827925,827925
827930,827930
828255,828255
828298,828298
828442,828442
828443,828443
828470,828470
828513,828513
828834,828834
828850,828850
829129,829129
829159,829159
829225,829225
829384,829384
829407,829407
829412,829412
829474,829474
829543,829543
829708,829708
829866,829866
830172,830172
830243,830243
830829,830829
830943,830943
831023,831023
831119,831119
831158,831158
831253,831253
831330,831330
831445,831445
831581,831581
831765,831765
831769,831769
831807,831807
831895,831895
832077,832077
832476,832476
832697,832697
833010,833010
833168,833168
833254,833254
833273,833273
833311,833311
833318,833318
833321,833321
833434,833434
833607,833607
833633,833633
833683,833683
834068,834068
834147,834147
834158,834158
834164,834164
834235,834235
834312,834312
834359,834359
834731,834731
834881,834881
835072,835072
835202,835202
835393,835393
835407,835407
835524,835524
835768,835768
835770,835770
835992,835992
836109,836109
836250,836250
836459,836459
836551,836551
836657,836657
836663,836663
836752,836752
836959,836959
836979,836979
837262,837262
837582,837582
837697,837697
837943,837943
838016,838016
838061,838061
838212,838212
838306,838306
838418,838418
838518,838518
838603,838603
838607,838607
838881,838881
839045,839045
839058,839058
839078,839078
839297,839297
839381,839381
839384,839384
839430,839430
839455,839455
839480,839480
839656,839656
839661,839661
839665,839665
839749,839749
839829,839829
839981,839981
840151,840151
840599,840599
840759,840759
840763,840763
840824,840824
841404,841404
841437,841437
841494,841494
841496,841496
841578,841578
841585,841585
841588,841588
841648,841648
841726,841726
841825,841825
841883,841883
841943,841943
841971,841971
841973,841973
842154,842154
842173,842173
842261,842261
842515,842515
842952,842952
843172,843172
843212,843212
843257,843257
843380,843380
843396,843396
843433,843433
843525,843525
843607,843607
843649,843649
843662,843662
843809,843809
843847,843847
843951,843951
843961,843961
843997,843997
844019,844019
844125,844125
844129,844129
844150,844150
844224,844224
844288,844288
844373,844373
844664,844664
844695,844695
844734,844734
844789,844789
844814,844814
844867,844867
844888,844888
845125,845125
845168,845168
845193,845193
845263,845263
845344,845344
845565,845565
845866,845866
845879,845879
845915,845915
846261,846261
846293,846293
846373,846373
846575,846575
846761,846761
846775,846775
847117,847117
847144,847144
847197,847197
847208,847208
847464,847464
847567,847567
847728,847728
847811,847811
847962,847962
848064,848064
848269,848269
848308,848308
848315,848315
848566,848566
848573,848573
848699,848699
848930,848930
849195,849195
849229,849229
849363,849363
849368,849368
849620,849620
849756,849756
850126,850126
850156,850156
850202,850202
850241,850241
850250,850250
850299,850299
850495,850495
850603,850603
850701,850701
850921,850921
850940,850940
850976,850976
851495,851495
851663,851663
851785,851785
852012,852012
852229,852229
852461,852461
852551,852551
852553,852553
852661,852661
852965,852965
853063,853063
853138,853138
853142,853142
853323,853323
853422,853422
853562,853562
853835,853835
853874,853874
853904,853904
853937,853937
853976,853976
854008,854008
854104,854104
854311,854311
854330,854330
854363,854363
854526,854526
854857,854857
854993,854993
855044,855044
855046,855046
855068,855068
855104,855104
855213,855213
855235,855235
855241,855241
855244,855244
855252,855252
855521,855521
855793,855793
855902,855902
856013,856013
856089,856089
856166,856166
856234,856234
856647,856647
856766,856766
856900,856900
856986,856986
857146,857146
857244,857244
857266,857266
857319,857319
857400,857400
857502,857502
857557,857557
857558,857558
857775,857775
857831,857831
857928,857928
858107,858107
858143,858143
858335,858335
858568,858568
858659,858659
858852,858852
859094,859094
859137,859137
859239,859239
859264,859264
859271,859271
859274,859274
859338,859338
859750,859750
859919,859919
860044,860044
860141,860141
860343,860343
860453,860453
860515,860515
860665,860665
860717,860717
860862,860862
860955,860955
861148,861148
861381,861381
861645,861645
861783,861783
861957,861957
862105,862105
862110,862110
862375,862375
862489,862489
862549,862549
862715,862715
862736,862736
862822,862822
862855,862855
863097,863097
863391,863391
863473,863473
863706,863706
863736,863736
863811,863811
864167,864167
864177,864177
864178,864178
864251,864251
864255,864255
864299,864299
864327,864327
864530,864530
864575,864575
864591,864591
864653,864653
864783,864783
864822,864822
864861,864861
864923,864923
864932,864932
865011,865011
865137,865137
865144,865144
865331,865331
865609,865609
865823,865823
865851,865851
865876,865876
865926,865926
865928,865928
865959,865959
866109,866109
866222,866222
866260,866260
866700,866700
866763,866763
866899,866899
867187,867187
867233,867233
867454,867454
867461,867461
867569,867569
867615,867615
867976,867976
868006,868006
868256,868256
868314,868314
868417,868417
868633,868633
868974,868974
869045,869045
869169,869169
869239,869239
869319,869319
869547,869547
869587,869587
869926,869926
869967,869967
870424,870424
870579,870579
870629,870629
870781,870781
870797,870797
870946,870946
871116,871116
871308,871308
871344,871344
871727,871727
871796,871796
872004,872004
872290,872290
872352,872352
872510,872510
872557,872557
872647,872647
872750,872750
872797,872797
873024,873024
873132,873132
873215,873215
873304,873304
873325,873325
873706,873706
873763,873763
873857,873857
874116,874116
874151,874151
874222,874222
874272,874272
874368,874368
874385,874385
874408,874408
874530,874530
874666,874666
874684,874684
874718,874718
874872,874872
875065,875065
875089,875089
875802,875802
876198,876198
876565,876565
877003,877003
877047,877047
877101,877101
877120,877120
877134,877134
877325,877325
877441,877441
877502,877502
877514,877514
877730,877730
877931,877931
877951,877951
878040,878040
878145,878145
878223,878223
878349,878349
878456,878456
878661,878661
878672,878672
878813,878813
878837,878837
878844,878844
878889,878889
878891,878891
879007,879007
879008,879008
879323,879323
879475,879475
879529,879529
879580,879580
879620,879620
879710,879710
880225,880225
880315,880315
880348,880348
880510,880510
880574,880574
880620,880620
880762,880762
880853,880853
880855,880855
880927,880927
880993,880993
881042,881042
881160,881160
881694,881694
881819,881819
881897,881897
881906,881906
881927,881927
882114,882114
882137,882137
882180,882180
882193,882193
882195,882195
882370,882370
882471,882471
882506,882506
882621,882621
882625,882625
882680,882680
882744,882744
883044,883044
883050,883050
883165,883165
883194,883194
883309,883309
883391,883391
883751,883751
883927,883927
883931,883931
884051,884051
884108,884108
884275,884275
884303,884303
884430,884430
884435,884435
884700,884700
884731,884731
884804,884804
884855,884855
885069,885069
885101,885101
885130,885130
885508,885508
885545,885545
885745,885745
885782,885782
885912,885912
885913,885913
886112,886112
886331,886331
886343,886343
886414,886414
886497,886497
886540,886540
886605,886605
886751,886751
886806,886806
886849,886849
887118,887118
887426,887426
887470,887470
887541,887541
887608,887608
887809,887809
887901,887901
887966,887966
888074,888074
888137,888137
888253,888253
888277,888277
888473,888473
888720,888720
888855,888855
888918,888918
889272,889272
889350,889350
889449,889449
889582,889582
889813,889813
889848,889848
889897,889897
889982,889982
890022,890022
890023,890023
890155,890155
890401,890401
890407,890407
890566,890566
890934,890934
891271,891271
891302,891302
891737,891737
891747,891747
892174,892174
892178,892178
892625,892625
892650,892650
892715,892715
892903,892903
892945,892945
893105,893105
893209,893209
893395,893395
893526,893526
893547,893547
893595,893595
893803,893803
893886,893886
893922,893922
893954,893954
893997,893997
894157,894157
894163,894163
894181,894181
894286,894286
894313,894313
894407,894407
894455,894455
894464,894464
894603,894603
894674,894674
894739,894739
894790,894790
894895,894895
895024,895024
895160,895160
895233,895233
895475,895475
895551,895551
895660,895660
895667,895667
895931,895931
895972,895972
896231,896231
896405,896405
896470,896470
896664,896664
896713,896713
896786,896786
896849,896849
896878,896878
896924,896924
896945,896945
897085,897085
897110,897110
897111,897111
897162,897162
897221,897221
897277,897277
897378,897378
897400,897400
897478,897478
897621,897621
897716,897716
897771,897771
897893,897893
897933,897933
898050,898050
898198,898198
898429,898429
898448,898448
898591,898591
898656,898656
898662,898662
898847,898847
898889,898889
899193,899193
899207,899207
899267,899267
899322,899322
899775,899775
899963,899963
900071,900071
900267,900267
900355,900355
900585,900585
900615,900615
900623,900623
900906,900906
901056,901056
901228,901228
901275,901275
901312,901312
901314,901314
901334,901334
901633,901633
901686,901686
901740,901740
901812,901812
902039,902039
902249,902249
902673,902673
902838,902838
902864,902864
903224,903224
903238,903238
903239,903239
903251,903251
903349,903349
903378,903378
903545,903545
903571,903571
903837,903837
903841,903841
903891,903891
903968,903968
904386,904386
904421,904421
904430,904430
904537,904537
904653,904653
904667,904667
905260,905260
905350,905350
905354,905354
905470,905470
905655,905655
905695,905695
905786,905786
905872,905872
905941,905941
906062,906062
906213,906213
906388,906388
906401,906401
906553,906553
906573,906573
906587,906587
906622,906622
906625,906625
906735,906735
906755,906755
906777,906777
906972,906972
907148,907148
907163,907163
907444,907444
907638,907638
907670,907670
908046,908046
908048,908048
908233,908233
908280,908280
908304,908304
908497,908497
908534,908534
908648,908648
908760,908760
908784,908784
908947,908947
908974,908974
909023,909023
909057,909057
909177,909177
909224,909224
909325,909325
909481,909481
909492,909492
909672,909672
909762,909762
909930,909930
910069,910069
910154,910154
910284,910284
910310,910310
910431,910431
910693,910693
910725,910725
910734,910734
910745,910745
910752,910752
910835,910835
910955,910955
910981,910981
911009,911009
911066,911066
911157,911157
911193,911193
911460,911460
911536,911536
911667,911667
911891,911891
912073,912073
912172,912172
912245,912245
912267,912267
912312,912312
912326,912326
912385,912385
912635,912635
912691,912691
912919,912919
913222,913222
913335,913335
913549,913549
913611,913611
913646,913646
913652,913652
913705,913705
914069,914069
914198,914198
914270,914270
914284,914284
914369,914369
914515,914515
914521,914521
914585,914585
915078,915078
915210,915210
915381,915381
916213,916213
916217,916217
916390,916390
916441,916441
916452,916452
916537,916537
916582,916582
916801,916801
917223,917223
917370,917370
917461,917461
917597,917597
917606,917606
917721,917721
917887,917887
917888,917888
918047,918047
918080,918080
918166,918166
918223,918223
918457,918457
918673,918673
919008,919008
919075,919075
919115,919115
919168,919168
919237,919237
919632,919632
919787,919787
919803,919803
919811,919811
919848,919848
919951,919951
919965,919965
920133,920133
920145,920145
920229,920229
920380,920380
920489,920489
920490,920490
920571,920571
920721,920721
921078,921078
921147,921147
921219,921219
921403,921403
921527,921527
921842,921842
921913,921913
922128,922128
922165,922165
922177,922177
922263,922263
922404,922404
922436,922436
922561,922561
922661,922661
922675,922675
922729,922729
922738,922738
922865,922865
922908,922908
922978,922978
922979,922979
923023,923023
923162,923162
923171,923171
923479,923479
923541,923541
923654,923654
923766,923766
923862,923862
923951,923951
924031,924031
924509,924509
924548,924548
924677,924677
924729,924729
924759,924759
924863,924863
925051,925051
925472,925472
925528,925528
925627,925627
925650,925650
926049,926049
926162,926162
926266,926266
926318,926318
926334,926334
926497,926497
926594,926594
926604,926604
926734,926734
926927,926927
927035,927035
927086,927086
927160,927160
927184,927184
927415,927415
927479,927479
927540,927540
927584,927584
927720,927720
927728,927728
927859,927859
927861,927861
928339,928339
928348,928348
928398,928398
928476,928476
928546,928546
928648,928648
928679,928679
928707,928707
928719,928719
928896,928896
928900,928900
928930,928930
929053,929053
929221,929221
929468,929468
929474,929474
929547,929547
929548,929548
929621,929621
929653,929653
929694,929694
929735,929735
929817,929817
929863,929863
929901,929901
929915,929915
929992,929992
930270,930270
930342,930342
930437,930437
930549,930549
930610,930610
930776,930776
930810,930810
930812,930812
930920,930920
931000,931000
931001,931001
931055,931055
931087,931087
931088,931088
931163,931163
931385,931385
931533,931533
932012,932012
932026,932026
932037,932037
932072,932072
932091,932091
932210,932210
932297,932297
932363,932363
932705,932705
932864,932864
932970,932970
932976,932976
933446,933446
933556,933556
933809,933809
933939,933939
933955,933955
933971,933971
934186,934186
934247,934247
934268,934268
934440,934440
934815,934815
934890,934890
934922,934922
934945,934945
935606,935606
935731,935731
935917,935917
936006,936006
936051,936051
936097,936097
936309,936309
936358,936358
936363,936363
936564,936564
937229,937229
937303,937303
937596,937596
937941,937941
937999,937999
938050,938050
938068,938068
938159,938159
938602,938602
938681,938681
938809,938809
939048,939048
939421,939421
939516,939516
939671,939671
939717,939717
939900,939900
939909,939909
939931,939931
939933,939933
940003,940003
940014,940014
940077,940077
940095,940095
940113,940113
940682,940682
940724,940724
941009,941009
941023,941023
941354,941354
941432,941432
941585,941585
941656,941656
941736,941736
941909,941909
942243,942243
942290,942290
942346,942346
942611,942611
942662,942662
942677,942677
942719,942719
942760,942760
942807,942807
942965,942965
943205,943205
943341,943341
943366,943366
943601,943601
943746,943746
943816,943816
943992,943992
944512,944512
944678,944678
944722,944722
944728,944728
944810,944810
945151,945151
945254,945254
945360,945360
945491,945491
945614,945614
945617,945617
945666,945666
946300,946300
946525,946525
946557,946557
946695,946695
946815,946815
946855,946855
947249,947249
947440,947440
947683,947683
947953,947953
948104,948104
948108,948108
948149,948149
948295,948295
948324,948324
948329,948329
948378,948378
948468,948468
948493,948493
948552,948552
948598,948598
948778,948778
948898,948898
949000,949000
949104,949104
949124,949124
949140,949140
949255,949255
949283,949283
949310,949310
949319,949319
949416,949416
949545,949545
949557,949557
949593,949593
949611,949611
950032,950032
950070,950070
950206,950206
950290,950290
950329,950329
950364,950364
950469,950469
950479,950479
950486,950486
950548,950548
950933,950933
950957,950957
950963,950963
951015,951015
951068,951068
951335,951335
951473,951473
951529,951529
951535,951535
951539,951539
951629,951629
951722,951722
951758,951758
951773,951773
951843,951843
951891,951891
951914,951914
951942,951942
952149,952149
952217,952217
952326,952326
952443,952443
952550,952550
952569,952569
952626,952626
952653,952653
952689,952689
952827,952827
953012,953012
953055,953055
953109,953109
953250,953250
953469,953469
953598,953598
953936,953936
954135,954135
954228,954228
954268,954268
954280,954280
954410,954410
954418,954418
954515,954515
954616,954616
954663,954663
954750,954750
954807,954807
955011,955011
955171,955171
955173,955173
955513,955513
955601,955601
955668,955668
955917,955917
955928,955928
955998,955998
956064,956064
956104,956104
956212,956212
956224,956224
956328,956328
956546,956546
956579,956579
956680,956680
956712,956712
956841,956841
956944,956944
957061,957061
957067,957067
957074,957074
957077,957077
957258,957258
957293,957293
957366,957366
957384,957384
957389,957389
957526,957526
957591,957591
957594,957594
957740,957740
957800,957800
957932,957932
958138,958138
958347,958347
958663,958663
958715,958715
958811,958811
958826,958826
958940,958940
958992,958992
959097,959097
959127,959127
959156,959156
959583,959583
959590,959590
959678,959678
959704,959704
959854,959854
959944,959944
960070,960070
960378,960378
960488,960488
960506,960506
960707,960707
960934,960934
961342,961342
961360,961360
961410,961410
961421,961421
961548,961548
961744,961744
961779,961779
961823,961823
961866,961866
961967,961967
962195,962195
962442,962442
962620,962620
962906,962906
962981,962981
962999,962999
963013,963013
963112,963112
963281,963281
963334,963334
963465,963465
963688,963688
963701,963701
963781,963781
963886,963886
963907,963907
963928,963928
964014,964014
964063,964063
964328,964328
964538,964538
964555,964555
964593,964593
964604,964604
964727,964727
964974,964974
965127,965127
965196,965196
965445,965445
965604,965604
965663,965663
965674,965674
965692,965692
965845,965845
965892,965892
966301,966301
966407,966407
966473,966473
966479,966479
966492,966492
966530,966530
966552,966552
966660,966660
966721,966721
966743,966743
966749,966749
967001,967001
967182,967182
967228,967228
967577,967577
967607,967607
967702,967702
967893,967893
967960,967960
968008,968008
968087,968087
968170,968170
968541,968541
968638,968638
968666,968666
968716,968716
968728,968728
969012,969012
969082,969082
969094,969094
969433,969433
969611,969611
969651,969651
969709,969709
969870,969870
970004,970004
970205,970205
970375,970375
970422,970422
970611,970611
970662,970662
970794,970794
970849,970849
970922,970922
971125,971125
971199,971199
971345,971345
971652,971652
971769,971769
972805,972805
973075,973075
973155,973155
973176,973176
973186,973186
973229,973229
973307,973307
973352,973352
973463,973463
973492,973492
973577,973577
973641,973641
973672,973672
973822,973822
973843,973843
974104,974104
974303,974303
974329,974329
974474,974474
974790,974790
974821,974821
975030,975030
975192,975192
975495,975495
975653,975653
975667,975667
975703,975703
975857,975857
975904,975904
975946,975946
976045,976045
976093,976093
976122,976122
976842,976842
976948,976948
976951,976951
976959,976959
977003,977003
977030,977030
977072,977072
977088,977088
977233,977233
977239,977239
977358,977358
977415,977415
977531,977531
977658,977658
977812,977812
977875,977875
977879,977879
977881,977881
977923,977923
977996,977996
978124,978124
978401,978401
978432,978432
978606,978606
978783,978783
979101,979101
979125,979125
979379,979379
979484,979484
979564,979564
979573,979573
979576,979576
979607,979607
979706,979706
979945,979945
980042,980042
980050,980050
980054,980054
980294,980294
980351,980351
980483,980483
980502,980502
980574,980574
980880,980880
980886,980886
981086,981086
981136,981136
981169,981169
981218,981218
981238,981238
981425,981425
981524,981524
981540,981540
981608,981608
981643,981643
981746,981746
981791,981791
981821,981821
981864,981864
981982,981982
982098,982098
982113,982113
982357,982357
982430,982430
982456,982456
982588,982588
982650,982650
982670,982670
982679,982679
982716,982716
982827,982827
982891,982891
983246,983246
983356,983356
983482,983482
983630,983630
983672,983672
983675,983675
983834,983834
983835,983835
983840,983840
984085,984085
984090,984090
984168,984168
984242,984242
984251,984251
984262,984262
984350,984350
984448,984448
984586,984586
984673,984673
984766,984766
984791,984791
984805,984805
984843,984843
984857,984857
984865,984865
984908,984908
985246,985246
985306,985306
985375,985375
985474,985474
985558,985558
985629,985629
985707,985707
985749,985749
985756,985756
985833,985833
985838,985838
985841,985841
985927,985927
985934,985934
985962,985962
986055,986055
986105,986105
986364,986364
986665,986665
986754,986754
987055,987055
987162,987162
987187,987187
987272,987272
987303,987303
987551,987551
987598,987598
987730,987730
987855,987855
987872,987872
987996,987996
988098,988098
988099,988099
988165,988165
988265,988265
988368,988368
988594,988594
988607,988607
988832,988832
988942,988942
988946,988946
989213,989213
989402,989402
989458,989458
989581,989581
989770,989770
989886,989886
989890,989890
990112,990112
990237,990237
990659,990659
990724,990724
990759,990759
990822,990822
991271,991271
991392,991392
991521,991521
991553,991553
991616,991616
991709,991709
991730,991730
991826,991826
991866,991866
991873,991873
991895,991895
991918,991918
991989,991989
992024,992024
992125,992125
992238,992238
992276,992276
992509,992509
992577,992577
992745,992745
992788,992788
992854,992854
992856,992856
992880,992880
992892,992892
993060,993060
993137,993137
993139,993139
993148,993148
993238,993238
993531,993531
993611,993611
993636,993636
993676,993676
993848,993848
